[Measurement conditions]
Sample identification,
Comment - 1,"Configuration=Reflection-transmission spinner, Owner=User-1, Creation date=5/11/2015 1:51:45 PM"
Comment - 2,"Goniometer=Theta/Theta; Minimum step size 2Theta:0.0001; Minimum step size Omega:0.0001"
Comment - 3,"Sample stage=Reflection-transmission spinner; Minimum step size Phi:0.1"
Comment - 4,"Diffractometer system=EMPYREAN"
Comment - 5,"Measurement program=C:\PANalytical\Data Collector\Programs\Esin Scan.xrdmp, Identifier={545BE9EB-C830-47C9-A564-E4EDE9967014}"
Anode material,Cu
K-Alpha1 wavelength,1.5405980
K-Alpha2 wavelength,1.5444260
Ratio K-Alpha2/K-Alpha1,0.500
Divergence slit,Fixed,0.19mm
Monochromator used,NO
Generator voltage, 45
Tube current, 40
File date and time,29/Jan/2020 10:55
Unit cell,
h k l, 0 0 0
Scan axis,Gonio
Scan range,20.000000001,89.986792989
Scan step size,0.0334225
No. of points, 2094
Scan type,CONTINUOUS
Phi,286.4
Time per step,29.845
[Scan points]
Angle,Intensity
20.016711270,135.0
20.050133807,134.0
20.083556344,124.0
20.116978882,136.0
20.150401419,141.0
20.183823956,128.0
20.217246493,119.0
20.250669031,116.0
20.284091568,109.0
20.317514105,136.0
20.350936642,120.0
20.384359180,127.0
20.417781717,111.0
20.451204254,116.0
20.484626791,119.0
20.518049329,155.0
20.551471866,120.0
20.584894403,135.0
20.618316940,114.0
20.651739478,129.0
20.685162015,132.0
20.718584552,116.0
20.752007089,119.0
20.785429627,128.0
20.818852164,127.0
20.852274701,133.0
20.885697238,112.0
20.919119776,110.0
20.952542313,112.0
20.985964850,105.0
21.019387387,135.0
21.052809925,119.0
21.086232462,127.0
21.119654999,128.0
21.153077536,104.0
21.186500074,102.0
21.219922611,100.0
21.253345148,134.0
21.286767685,128.0
21.320190222,116.0
21.353612760,125.0
21.387035297,108.0
21.420457834,129.0
21.453880371,128.0
21.487302909,148.0
21.520725446,110.0
21.554147983,122.0
21.587570520,136.0
21.620993058,121.0
21.654415595,112.0
21.687838132,110.0
21.721260669,111.0
21.754683207,114.0
21.788105744,107.0
21.821528281,119.0
21.854950818,110.0
21.888373356,128.0
21.921795893,105.0
21.955218430,91.0
21.988640967,115.0
22.022063505,113.0
22.055486042,105.0
22.088908579,96.0
22.122331116,122.0
22.155753654,129.0
22.189176191,97.0
22.222598728,111.0
22.256021265,120.0
22.289443803,125.0
22.322866340,100.0
22.356288877,115.0
22.389711414,129.0
22.423133952,120.0
22.456556489,115.0
22.489979026,108.0
22.523401563,108.0
22.556824100,103.0
22.590246638,103.0
22.623669175,88.0
22.657091712,87.0
22.690514249,117.0
22.723936787,95.0
22.757359324,107.0
22.790781861,104.0
22.824204398,93.0
22.857626936,102.0
22.891049473,112.0
22.924472010,109.0
22.957894547,113.0
22.991317085,108.0
23.024739622,93.0
23.058162159,111.0
23.091584696,100.0
23.125007234,123.0
23.158429771,120.0
23.191852308,105.0
23.225274845,93.0
23.258697383,98.0
23.292119920,117.0
23.325542457,104.0
23.358964994,91.0
23.392387532,100.0
23.425810069,110.0
23.459232606,111.0
23.492655143,91.0
23.526077681,96.0
23.559500218,110.0
23.592922755,110.0
23.626345292,89.0
23.659767830,97.0
23.693190367,116.0
23.726612904,101.0
23.760035441,95.0
23.793457978,98.0
23.826880516,110.0
23.860303053,96.0
23.893725590,95.0
23.927148127,107.0
23.960570665,101.0
23.993993202,112.0
24.027415739,102.0
24.060838276,97.0
24.094260814,111.0
24.127683351,90.0
24.161105888,90.0
24.194528425,123.0
24.227950963,102.0
24.261373500,107.0
24.294796037,111.0
24.328218574,100.0
24.361641112,93.0
24.395063649,92.0
24.428486186,89.0
24.461908723,115.0
24.495331261,89.0
24.528753798,107.0
24.562176335,107.0
24.595598872,111.0
24.629021410,96.0
24.662443947,87.0
24.695866484,99.0
24.729289021,99.0
24.762711559,97.0
24.796134096,98.0
24.829556633,85.0
24.862979170,93.0
24.896401708,87.0
24.929824245,108.0
24.963246782,79.0
24.996669319,96.0
25.030091856,95.0
25.063514394,116.0
25.096936931,100.0
25.130359468,95.0
25.163782005,87.0
25.197204543,102.0
25.230627080,97.0
25.264049617,104.0
25.297472154,73.0
25.330894692,101.0
25.364317229,84.0
25.397739766,119.0
25.431162303,109.0
25.464584841,74.0
25.498007378,84.0
25.531429915,88.0
25.564852452,69.0
25.598274990,91.0
25.631697527,84.0
25.665120064,92.0
25.698542601,93.0
25.731965139,85.0
25.765387676,76.0
25.798810213,80.0
25.832232750,86.0
25.865655288,91.0
25.899077825,99.0
25.932500362,86.0
25.965922899,80.0
25.999345437,73.0
26.032767974,85.0
26.066190511,111.0
26.099613048,95.0
26.133035586,102.0
26.166458123,86.0
26.199880660,65.0
26.233303197,90.0
26.266725734,88.0
26.300148272,102.0
26.333570809,77.0
26.366993346,86.0
26.400415883,75.0
26.433838421,72.0
26.467260958,87.0
26.500683495,93.0
26.534106032,85.0
26.567528570,84.0
26.600951107,78.0
26.634373644,87.0
26.667796181,86.0
26.701218719,84.0
26.734641256,80.0
26.768063793,96.0
26.801486330,76.0
26.834908868,86.0
26.868331405,91.0
26.901753942,93.0
26.935176479,80.0
26.968599017,74.0
27.002021554,100.0
27.035444091,86.0
27.068866628,104.0
27.102289166,180.0
27.135711703,235.0
27.169134240,334.0
27.202556777,512.0
27.235979315,621.0
27.269401852,765.0
27.302824389,894.0
27.336246926,853.0
27.369669464,638.0
27.403092001,452.0
27.436514538,278.0
27.469937075,200.0
27.503359612,150.0
27.536782150,104.0
27.570204687,103.0
27.603627224,90.0
27.637049761,119.0
27.670472299,104.0
27.703894836,89.0
27.737317373,97.0
27.770739910,86.0
27.804162448,73.0
27.837584985,76.0
27.871007522,88.0
27.904430059,93.0
27.937852597,65.0
27.971275134,90.0
28.004697671,91.0
28.038120208,76.0
28.071542746,80.0
28.104965283,72.0
28.138387820,75.0
28.171810357,66.0
28.205232895,80.0
28.238655432,69.0
28.272077969,80.0
28.305500506,70.0
28.338923044,72.0
28.372345581,87.0
28.405768118,84.0
28.439190655,67.0
28.472613193,81.0
28.506035730,73.0
28.539458267,79.0
28.572880804,80.0
28.606303342,76.0
28.639725879,68.0
28.673148416,70.0
28.706570953,84.0
28.739993490,89.0
28.773416028,91.0
28.806838565,89.0
28.840261102,64.0
28.873683639,88.0
28.907106177,68.0
28.940528714,86.0
28.973951251,86.0
29.007373788,76.0
29.040796326,74.0
29.074218863,69.0
29.107641400,92.0
29.141063937,88.0
29.174486475,90.0
29.207909012,88.0
29.241331549,65.0
29.274754086,96.0
29.308176624,80.0
29.341599161,87.0
29.375021698,87.0
29.408444235,89.0
29.441866773,74.0
29.475289310,74.0
29.508711847,84.0
29.542134384,72.0
29.575556922,76.0
29.608979459,73.0
29.642401996,78.0
29.675824533,88.0
29.709247071,68.0
29.742669608,81.0
29.776092145,100.0
29.809514682,98.0
29.842937219,60.0
29.876359757,85.0
29.909782294,68.0
29.943204831,74.0
29.976627368,87.0
30.010049906,109.0
30.043472443,86.0
30.076894980,88.0
30.110317517,73.0
30.143740055,78.0
30.177162592,85.0
30.210585129,77.0
30.244007666,88.0
30.277430204,86.0
30.310852741,84.0
30.344275278,84.0
30.377697815,70.0
30.411120353,79.0
30.444542890,84.0
30.477965427,78.0
30.511387964,96.0
30.544810502,95.0
30.578233039,87.0
30.611655576,57.0
30.645078113,87.0
30.678500651,87.0
30.711923188,103.0
30.745345725,84.0
30.778768262,86.0
30.812190800,95.0
30.845613337,85.0
30.879035874,107.0
30.912458411,95.0
30.945880949,109.0
30.979303486,97.0
31.012726023,113.0
31.046148560,120.0
31.079571097,97.0
31.112993635,127.0
31.146416172,126.0
31.179838709,150.0
31.213261246,172.0
31.246683784,172.0
31.280106321,195.0
31.313528858,266.0
31.346951395,326.0
31.380373933,445.0
31.413796470,800.0
31.447219007,1594.0
31.480641544,3507.0
31.514064082,6593.0
31.547486619,9154.0
31.580909156,10820.0
31.614331693,12159.0
31.647754231,11157.0
31.681176768,8528.0
31.714599305,5968.0
31.748021842,3823.0
31.781444380,2041.0
31.814866917,1019.0
31.848289454,541.0
31.881711991,393.0
31.915134529,279.0
31.948557066,240.0
31.981979603,194.0
32.015402140,187.0
32.048824678,158.0
32.082247215,126.0
32.115669752,170.0
32.149092289,146.0
32.182514827,140.0
32.215937364,129.0
32.249359901,102.0
32.282782438,116.0
32.316204975,111.0
32.349627513,79.0
32.383050050,90.0
32.416472587,107.0
32.449895124,88.0
32.483317662,92.0
32.516740199,92.0
32.550162736,95.0
32.583585273,91.0
32.617007811,80.0
32.650430348,88.0
32.683852885,101.0
32.717275422,72.0
32.750697960,98.0
32.784120497,86.0
32.817543034,83.0
32.850965571,68.0
32.884388109,61.0
32.917810646,79.0
32.951233183,73.0
32.984655720,75.0
33.018078258,66.0
33.051500795,76.0
33.084923332,70.0
33.118345869,73.0
33.151768407,75.0
33.185190944,73.0
33.218613481,76.0
33.252036018,55.0
33.285458556,76.0
33.318881093,65.0
33.352303630,69.0
33.385726167,61.0
33.419148705,57.0
33.452571242,74.0
33.485993779,65.0
33.519416316,60.0
33.552838853,62.0
33.586261391,84.0
33.619683928,66.0
33.653106465,81.0
33.686529002,63.0
33.719951540,69.0
33.753374077,63.0
33.786796614,58.0
33.820219151,65.0
33.853641689,72.0
33.887064226,56.0
33.920486763,63.0
33.953909300,57.0
33.987331838,63.0
34.020754375,65.0
34.054176912,75.0
34.087599449,66.0
34.121021987,62.0
34.154444524,50.0
34.187867061,69.0
34.221289598,62.0
34.254712136,67.0
34.288134673,61.0
34.321557210,51.0
34.354979747,64.0
34.388402285,58.0
34.421824822,65.0
34.455247359,54.0
34.488669896,57.0
34.522092434,68.0
34.555514971,68.0
34.588937508,62.0
34.622360045,57.0
34.655782583,63.0
34.689205120,60.0
34.722627657,55.0
34.756050194,73.0
34.789472731,52.0
34.822895269,49.0
34.856317806,50.0
34.889740343,66.0
34.923162880,50.0
34.956585418,61.0
34.990007955,64.0
35.023430492,37.0
35.056853029,60.0
35.090275567,55.0
35.123698104,70.0
35.157120641,57.0
35.190543178,56.0
35.223965716,61.0
35.257388253,65.0
35.290810790,49.0
35.324233327,42.0
35.357655865,69.0
35.391078402,60.0
35.424500939,60.0
35.457923476,60.0
35.491346014,63.0
35.524768551,60.0
35.558191088,75.0
35.591613625,66.0
35.625036163,65.0
35.658458700,57.0
35.691881237,44.0
35.725303774,56.0
35.758726312,52.0
35.792148849,53.0
35.825571386,56.0
35.858993923,49.0
35.892416461,52.0
35.925838998,49.0
35.959261535,51.0
35.992684072,52.0
36.026106609,38.0
36.059529147,51.0
36.092951684,43.0
36.126374221,48.0
36.159796758,54.0
36.193219296,65.0
36.226641833,44.0
36.260064370,48.0
36.293486907,70.0
36.326909445,56.0
36.360331982,55.0
36.393754519,45.0
36.427177056,37.0
36.460599594,61.0
36.494022131,52.0
36.527444668,60.0
36.560867205,49.0
36.594289743,65.0
36.627712280,52.0
36.661134817,57.0
36.694557354,63.0
36.727979892,49.0
36.761402429,46.0
36.794824966,60.0
36.828247503,60.0
36.861670041,57.0
36.895092578,43.0
36.928515115,31.0
36.961937652,40.0
36.995360190,49.0
37.028782727,46.0
37.062205264,65.0
37.095627801,48.0
37.129050339,65.0
37.162472876,45.0
37.195895413,46.0
37.229317950,56.0
37.262740487,52.0
37.296163025,52.0
37.329585562,55.0
37.363008099,56.0
37.396430636,67.0
37.429853174,57.0
37.463275711,40.0
37.496698248,56.0
37.530120785,50.0
37.563543323,42.0
37.596965860,31.0
37.630388397,40.0
37.663810934,56.0
37.697233472,49.0
37.730656009,55.0
37.764078546,56.0
37.797501083,51.0
37.830923621,46.0
37.864346158,41.0
37.897768695,48.0
37.931191232,42.0
37.964613770,53.0
37.998036307,50.0
38.031458844,52.0
38.064881381,46.0
38.098303919,49.0
38.131726456,36.0
38.165148993,52.0
38.198571530,45.0
38.231994068,50.0
38.265416605,52.0
38.298839142,80.0
38.332261679,87.0
38.365684217,92.0
38.399106754,128.0
38.432529291,70.0
38.465951828,63.0
38.499374365,70.0
38.532796903,65.0
38.566219440,66.0
38.599641977,58.0
38.633064514,55.0
38.666487052,51.0
38.699909589,51.0
38.733332126,66.0
38.766754663,60.0
38.800177201,41.0
38.833599738,45.0
38.867022275,53.0
38.900444812,41.0
38.933867350,43.0
38.967289887,39.0
39.000712424,43.0
39.034134961,38.0
39.067557499,42.0
39.100980036,54.0
39.134402573,58.0
39.167825110,46.0
39.201247648,52.0
39.234670185,49.0
39.268092722,46.0
39.301515259,46.0
39.334937797,58.0
39.368360334,53.0
39.401782871,49.0
39.435205408,42.0
39.468627946,48.0
39.502050483,56.0
39.535473020,50.0
39.568895557,43.0
39.602318095,41.0
39.635740632,55.0
39.669163169,44.0
39.702585706,31.0
39.736008243,62.0
39.769430781,54.0
39.802853318,45.0
39.836275855,48.0
39.869698392,48.0
39.903120930,40.0
39.936543467,44.0
39.969966004,56.0
40.003388541,49.0
40.036811079,38.0
40.070233616,40.0
40.103656153,44.0
40.137078690,40.0
40.170501228,43.0
40.203923765,44.0
40.237346302,33.0
40.270768839,39.0
40.304191377,45.0
40.337613914,51.0
40.371036451,46.0
40.404458988,37.0
40.437881526,41.0
40.471304063,50.0
40.504726600,53.0
40.538149137,30.0
40.571571675,53.0
40.604994212,56.0
40.638416749,67.0
40.671839286,48.0
40.705261824,56.0
40.738684361,58.0
40.772106898,46.0
40.805529435,34.0
40.838951973,57.0
40.872374510,54.0
40.905797047,44.0
40.939219584,61.0
40.972642121,43.0
41.006064659,54.0
41.039487196,50.0
41.072909733,38.0
41.106332270,45.0
41.139754808,46.0
41.173177345,54.0
41.206599882,52.0
41.240022419,53.0
41.273444957,41.0
41.306867494,37.0
41.340290031,38.0
41.373712568,49.0
41.407135106,52.0
41.440557643,53.0
41.473980180,36.0
41.507402717,57.0
41.540825255,48.0
41.574247792,51.0
41.607670329,30.0
41.641092866,46.0
41.674515404,40.0
41.707937941,37.0
41.741360478,36.0
41.774783015,46.0
41.808205553,36.0
41.841628090,43.0
41.875050627,37.0
41.908473164,34.0
41.941895702,40.0
41.975318239,40.0
42.008740776,43.0
42.042163313,38.0
42.075585851,48.0
42.109008388,39.0
42.142430925,39.0
42.175853462,41.0
42.209275999,41.0
42.242698537,43.0
42.276121074,44.0
42.309543611,39.0
42.342966148,50.0
42.376388686,53.0
42.409811223,38.0
42.443233760,43.0
42.476656297,32.0
42.510078835,48.0
42.543501372,43.0
42.576923909,45.0
42.610346446,54.0
42.643768984,44.0
42.677191521,41.0
42.710614058,44.0
42.744036595,36.0
42.777459133,46.0
42.810881670,49.0
42.844304207,44.0
42.877726744,49.0
42.911149282,51.0
42.944571819,50.0
42.977994356,40.0
43.011416893,39.0
43.044839431,51.0
43.078261968,55.0
43.111684505,40.0
43.145107042,55.0
43.178529580,52.0
43.211952117,55.0
43.245374654,48.0
43.278797191,44.0
43.312219729,37.0
43.345642266,39.0
43.379064803,50.0
43.412487340,45.0
43.445909877,46.0
43.479332415,53.0
43.512754952,49.0
43.546177489,51.0
43.579600026,42.0
43.613022564,44.0
43.646445101,58.0
43.679867638,61.0
43.713290175,51.0
43.746712713,54.0
43.780135250,42.0
43.813557787,42.0
43.846980324,46.0
43.880402862,49.0
43.913825399,45.0
43.947247936,66.0
43.980670473,44.0
44.014093011,42.0
44.047515548,58.0
44.080938085,60.0
44.114360622,51.0
44.147783160,52.0
44.181205697,57.0
44.214628234,44.0
44.248050771,56.0
44.281473309,50.0
44.314895846,66.0
44.348318383,57.0
44.381740920,52.0
44.415163458,45.0
44.448585995,75.0
44.482008532,60.0
44.515431069,64.0
44.548853607,86.0
44.582276144,85.0
44.615698681,91.0
44.649121218,79.0
44.682543755,88.0
44.715966293,98.0
44.749388830,81.0
44.782811367,75.0
44.816233904,74.0
44.849656442,86.0
44.883078979,74.0
44.916501516,64.0
44.949924053,108.0
44.983346591,117.0
45.016769128,157.0
45.050191665,181.0
45.083614202,258.0
45.117036740,255.0
45.150459277,411.0
45.183881814,678.0
45.217304351,1079.0
45.250726889,1747.0
45.284149426,2482.0
45.317571963,3167.0
45.350994500,3876.0
45.384417038,3988.0
45.417839575,3509.0
45.451262112,2793.0
45.484684649,2576.0
45.518107187,1889.0
45.551529724,1253.0
45.584952261,774.0
45.618374798,457.0
45.651797336,325.0
45.685219873,253.0
45.718642410,157.0
45.752064947,143.0
45.785487485,113.0
45.818910022,113.0
45.852332559,116.0
45.885755096,110.0
45.919177633,95.0
45.952600171,69.0
45.986022708,81.0
46.019445245,78.0
46.052867782,78.0
46.086290320,75.0
46.119712857,72.0
46.153135394,64.0
46.186557931,64.0
46.219980469,69.0
46.253403006,72.0
46.286825543,55.0
46.320248080,64.0
46.353670618,62.0
46.387093155,60.0
46.420515692,57.0
46.453938229,57.0
46.487360767,66.0
46.520783304,54.0
46.554205841,67.0
46.587628378,60.0
46.621050916,51.0
46.654473453,64.0
46.687895990,45.0
46.721318527,39.0
46.754741065,39.0
46.788163602,50.0
46.821586139,48.0
46.855008676,58.0
46.888431214,46.0
46.921853751,60.0
46.955276288,54.0
46.988698825,49.0
47.022121362,55.0
47.055543900,49.0
47.088966437,58.0
47.122388974,37.0
47.155811511,40.0
47.189234049,55.0
47.222656586,42.0
47.256079123,45.0
47.289501660,49.0
47.322924198,46.0
47.356346735,45.0
47.389769272,54.0
47.423191809,49.0
47.456614347,51.0
47.490036884,48.0
47.523459421,58.0
47.556881958,48.0
47.590304496,43.0
47.623727033,43.0
47.657149570,39.0
47.690572107,60.0
47.723994645,33.0
47.757417182,49.0
47.790839719,54.0
47.824262256,38.0
47.857684794,42.0
47.891107331,46.0
47.924529868,60.0
47.957952405,33.0
47.991374943,43.0
48.024797480,33.0
48.058220017,36.0
48.091642554,32.0
48.125065092,50.0
48.158487629,34.0
48.191910166,46.0
48.225332703,41.0
48.258755240,43.0
48.292177778,38.0
48.325600315,36.0
48.359022852,37.0
48.392445389,39.0
48.425867927,38.0
48.459290464,34.0
48.492713001,33.0
48.526135538,37.0
48.559558076,42.0
48.592980613,36.0
48.626403150,40.0
48.659825687,52.0
48.693248225,39.0
48.726670762,41.0
48.760093299,28.0
48.793515836,38.0
48.826938374,37.0
48.860360911,37.0
48.893783448,32.0
48.927205985,34.0
48.960628523,43.0
48.994051060,42.0
49.027473597,40.0
49.060896134,42.0
49.094318672,43.0
49.127741209,45.0
49.161163746,41.0
49.194586283,28.0
49.228008821,37.0
49.261431358,30.0
49.294853895,37.0
49.328276432,41.0
49.361698970,41.0
49.395121507,40.0
49.428544044,29.0
49.461966581,45.0
49.495389118,36.0
49.528811656,27.0
49.562234193,36.0
49.595656730,41.0
49.629079267,30.0
49.662501805,37.0
49.695924342,30.0
49.729346879,36.0
49.762769416,41.0
49.796191954,39.0
49.829614491,24.0
49.863037028,43.0
49.896459565,43.0
49.929882103,53.0
49.963304640,31.0
49.996727177,39.0
50.030149714,33.0
50.063572252,38.0
50.096994789,42.0
50.130417326,46.0
50.163839863,28.0
50.197262401,50.0
50.230684938,34.0
50.264107475,33.0
50.297530012,48.0
50.330952550,37.0
50.364375087,36.0
50.397797624,37.0
50.431220161,38.0
50.464642699,31.0
50.498065236,51.0
50.531487773,42.0
50.564910310,49.0
50.598332848,31.0
50.631755385,26.0
50.665177922,41.0
50.698600459,40.0
50.732022996,37.0
50.765445534,29.0
50.798868071,34.0
50.832290608,40.0
50.865713145,37.0
50.899135683,44.0
50.932558220,30.0
50.965980757,50.0
50.999403294,38.0
51.032825832,37.0
51.066248369,29.0
51.099670906,40.0
51.133093443,38.0
51.166515981,49.0
51.199938518,34.0
51.233361055,41.0
51.266783592,45.0
51.300206130,39.0
51.333628667,33.0
51.367051204,36.0
51.400473741,34.0
51.433896279,34.0
51.467318816,36.0
51.500741353,36.0
51.534163890,42.0
51.567586428,29.0
51.601008965,31.0
51.634431502,39.0
51.667854039,38.0
51.701276577,53.0
51.734699114,31.0
51.768121651,44.0
51.801544188,38.0
51.834966726,38.0
51.868389263,48.0
51.901811800,28.0
51.935234337,25.0
51.968656874,25.0
52.002079412,39.0
52.035501949,45.0
52.068924486,31.0
52.102347023,34.0
52.135769561,27.0
52.169192098,38.0
52.202614635,28.0
52.236037172,36.0
52.269459710,32.0
52.302882247,50.0
52.336304784,39.0
52.369727321,33.0
52.403149859,41.0
52.436572396,32.0
52.469994933,37.0
52.503417470,44.0
52.536840008,24.0
52.570262545,31.0
52.603685082,41.0
52.637107619,38.0
52.670530157,36.0
52.703952694,28.0
52.737375231,29.0
52.770797768,44.0
52.804220306,46.0
52.837642843,33.0
52.871065380,40.0
52.904487917,36.0
52.937910455,32.0
52.971332992,28.0
53.004755529,36.0
53.038178066,34.0
53.071600604,29.0
53.105023141,39.0
53.138445678,42.0
53.171868215,33.0
53.205290752,37.0
53.238713290,37.0
53.272135827,39.0
53.305558364,36.0
53.338980901,37.0
53.372403439,33.0
53.405825976,43.0
53.439248513,53.0
53.472671050,39.0
53.506093588,27.0
53.539516125,36.0
53.572938662,51.0
53.606361199,60.0
53.639783737,72.0
53.673206274,107.0
53.706628811,146.0
53.740051348,166.0
53.773473886,183.0
53.806896423,200.0
53.840318960,171.0
53.873741497,131.0
53.907164035,135.0
53.940586572,126.0
53.974009109,92.0
54.007431646,80.0
54.040854184,65.0
54.074276721,56.0
54.107699258,42.0
54.141121795,60.0
54.174544333,45.0
54.207966870,39.0
54.241389407,55.0
54.274811944,53.0
54.308234482,43.0
54.341657019,34.0
54.375079556,37.0
54.408502093,48.0
54.441924630,38.0
54.475347168,29.0
54.508769705,39.0
54.542192242,46.0
54.575614779,26.0
54.609037317,44.0
54.642459854,48.0
54.675882391,37.0
54.709304928,29.0
54.742727466,30.0
54.776150003,39.0
54.809572540,46.0
54.842995077,42.0
54.876417615,30.0
54.909840152,33.0
54.943262689,43.0
54.976685226,44.0
55.010107764,38.0
55.043530301,39.0
55.076952838,42.0
55.110375375,40.0
55.143797913,33.0
55.177220450,39.0
55.210642987,37.0
55.244065524,43.0
55.277488062,32.0
55.310910599,33.0
55.344333136,48.0
55.377755673,27.0
55.411178211,37.0
55.444600748,41.0
55.478023285,44.0
55.511445822,37.0
55.544868360,46.0
55.578290897,40.0
55.611713434,25.0
55.645135971,50.0
55.678558508,41.0
55.711981046,38.0
55.745403583,46.0
55.778826120,39.0
55.812248657,43.0
55.845671195,61.0
55.879093732,54.0
55.912516269,52.0
55.945938806,42.0
55.979361344,58.0
56.012783881,57.0
56.046206418,72.0
56.079628955,96.0
56.113051493,88.0
56.146474030,129.0
56.179896567,159.0
56.213319104,230.0
56.246741642,368.0
56.280164179,525.0
56.313586716,690.0
56.347009253,891.0
56.380431791,944.0
56.413854328,1013.0
56.447276865,877.0
56.480699402,743.0
56.514121940,732.0
56.547544477,539.0
56.580967014,479.0
56.614389551,372.0
56.647812089,239.0
56.681234626,178.0
56.714657163,120.0
56.748079700,87.0
56.781502238,69.0
56.814924775,74.0
56.848347312,67.0
56.881769849,53.0
56.915192386,44.0
56.948614924,62.0
56.982037461,51.0
57.015459998,52.0
57.048882535,53.0
57.082305073,36.0
57.115727610,48.0
57.149150147,51.0
57.182572684,42.0
57.215995222,46.0
57.249417759,38.0
57.282840296,41.0
57.316262833,43.0
57.349685371,36.0
57.383107908,33.0
57.416530445,34.0
57.449952982,30.0
57.483375520,40.0
57.516798057,44.0
57.550220594,44.0
57.583643131,53.0
57.617065669,25.0
57.650488206,38.0
57.683910743,31.0
57.717333280,41.0
57.750755818,34.0
57.784178355,39.0
57.817600892,27.0
57.851023429,41.0
57.884445967,33.0
57.917868504,28.0
57.951291041,42.0
57.984713578,33.0
58.018136116,36.0
58.051558653,38.0
58.084981190,42.0
58.118403727,37.0
58.151826264,42.0
58.185248802,32.0
58.218671339,32.0
58.252093876,36.0
58.285516413,19.0
58.318938951,29.0
58.352361488,32.0
58.385784025,24.0
58.419206562,31.0
58.452629100,36.0
58.486051637,40.0
58.519474174,28.0
58.552896711,36.0
58.586319249,26.0
58.619741786,29.0
58.653164323,49.0
58.686586860,42.0
58.720009398,30.0
58.753431935,34.0
58.786854472,40.0
58.820277009,45.0
58.853699547,28.0
58.887122084,28.0
58.920544621,46.0
58.953967158,21.0
58.987389696,31.0
59.020812233,28.0
59.054234770,33.0
59.087657307,32.0
59.121079845,32.0
59.154502382,27.0
59.187924919,24.0
59.221347456,39.0
59.254769994,32.0
59.288192531,44.0
59.321615068,34.0
59.355037605,33.0
59.388460142,28.0
59.421882680,31.0
59.455305217,29.0
59.488727754,27.0
59.522150291,27.0
59.555572829,28.0
59.588995366,33.0
59.622417903,36.0
59.655840440,40.0
59.689262978,36.0
59.722685515,29.0
59.756108052,41.0
59.789530589,36.0
59.822953127,30.0
59.856375664,36.0
59.889798201,30.0
59.923220738,38.0
59.956643276,25.0
59.990065813,29.0
60.023488350,39.0
60.056910887,39.0
60.090333425,30.0
60.123755962,36.0
60.157178499,41.0
60.190601036,26.0
60.224023574,46.0
60.257446111,40.0
60.290868648,40.0
60.324291185,33.0
60.357713723,37.0
60.391136260,32.0
60.424558797,32.0
60.457981334,36.0
60.491403872,46.0
60.524826409,37.0
60.558248946,32.0
60.591671483,27.0
60.625094020,40.0
60.658516558,29.0
60.691939095,41.0
60.725361632,38.0
60.758784169,34.0
60.792206707,42.0
60.825629244,34.0
60.859051781,37.0
60.892474318,28.0
60.925896856,29.0
60.959319393,30.0
60.992741930,31.0
61.026164467,30.0
61.059587005,31.0
61.093009542,36.0
61.126432079,38.0
61.159854616,27.0
61.193277154,36.0
61.226699691,37.0
61.260122228,29.0
61.293544765,34.0
61.326967303,28.0
61.360389840,37.0
61.393812377,27.0
61.427234914,38.0
61.460657452,27.0
61.494079989,33.0
61.527502526,31.0
61.560925063,32.0
61.594347601,30.0
61.627770138,45.0
61.661192675,25.0
61.694615212,29.0
61.728037750,37.0
61.761460287,29.0
61.794882824,32.0
61.828305361,24.0
61.861727898,37.0
61.895150436,32.0
61.928572973,21.0
61.961995510,31.0
61.995418047,34.0
62.028840585,38.0
62.062263122,45.0
62.095685659,42.0
62.129108196,34.0
62.162530734,34.0
62.195953271,34.0
62.229375808,34.0
62.262798345,29.0
62.296220883,27.0
62.329643420,31.0
62.363065957,26.0
62.396488494,29.0
62.429911032,31.0
62.463333569,37.0
62.496756106,29.0
62.530178643,36.0
62.563601181,21.0
62.597023718,22.0
62.630446255,28.0
62.663868792,33.0
62.697291330,40.0
62.730713867,41.0
62.764136404,22.0
62.797558941,24.0
62.830981479,25.0
62.864404016,39.0
62.897826553,37.0
62.931249090,25.0
62.964671628,24.0
62.998094165,31.0
63.031516702,28.0
63.064939239,33.0
63.098361776,33.0
63.131784314,44.0
63.165206851,31.0
63.198629388,36.0
63.232051925,17.0
63.265474463,40.0
63.298897000,34.0
63.332319537,39.0
63.365742074,33.0
63.399164612,30.0
63.432587149,45.0
63.466009686,41.0
63.499432223,37.0
63.532854761,37.0
63.566277298,41.0
63.599699835,28.0
63.633122372,28.0
63.666544910,33.0
63.699967447,27.0
63.733389984,40.0
63.766812521,33.0
63.800235059,29.0
63.833657596,38.0
63.867080133,26.0
63.900502670,40.0
63.933925208,29.0
63.967347745,34.0
64.000770282,39.0
64.034192819,27.0
64.067615357,34.0
64.101037894,39.0
64.134460431,33.0
64.167882968,30.0
64.201305505,30.0
64.234728043,36.0
64.268150580,32.0
64.301573117,39.0
64.334995654,29.0
64.368418192,32.0
64.401840729,29.0
64.435263266,38.0
64.468685803,49.0
64.502108341,44.0
64.535530878,41.0
64.568953415,39.0
64.602375952,36.0
64.635798490,31.0
64.669221027,39.0
64.702643564,31.0
64.736066101,36.0
64.769488639,31.0
64.802911176,31.0
64.836333713,37.0
64.869756250,33.0
64.903178788,37.0
64.936601325,37.0
64.970023862,49.0
65.003446399,58.0
65.036868937,28.0
65.070291474,37.0
65.103714011,62.0
65.137136548,58.0
65.170559086,40.0
65.203981623,32.0
65.237404160,45.0
65.270826697,34.0
65.304249235,41.0
65.337671772,25.0
65.371094309,43.0
65.404516846,48.0
65.437939383,44.0
65.471361921,43.0
65.504784458,37.0
65.538206995,38.0
65.571629532,48.0
65.605052070,48.0
65.638474607,36.0
65.671897144,53.0
65.705319681,37.0
65.738742219,49.0
65.772164756,45.0
65.805587293,44.0
65.839009830,53.0
65.872432368,76.0
65.905854905,102.0
65.939277442,104.0
65.972699979,144.0
66.006122517,222.0
66.039545054,341.0
66.072967591,460.0
66.106390128,550.0
66.139812666,553.0
66.173235203,439.0
66.206657740,413.0
66.240080277,373.0
66.273502815,373.0
66.306925352,364.0
66.340347889,326.0
66.373770426,228.0
66.407192964,191.0
66.440615501,133.0
66.474038038,83.0
66.507460575,78.0
66.540883113,65.0
66.574305650,54.0
66.607728187,52.0
66.641150724,46.0
66.674573261,39.0
66.707995799,46.0
66.741418336,49.0
66.774840873,42.0
66.808263410,39.0
66.841685948,42.0
66.875108485,36.0
66.908531022,51.0
66.941953559,41.0
66.975376097,48.0
67.008798634,51.0
67.042221171,34.0
67.075643708,54.0
67.109066246,30.0
67.142488783,43.0
67.175911320,38.0
67.209333857,41.0
67.242756395,36.0
67.276178932,46.0
67.309601469,39.0
67.343024006,32.0
67.376446544,36.0
67.409869081,41.0
67.443291618,43.0
67.476714155,27.0
67.510136693,32.0
67.543559230,20.0
67.576981767,32.0
67.610404304,27.0
67.643826842,39.0
67.677249379,29.0
67.710671916,30.0
67.744094453,38.0
67.777516991,42.0
67.810939528,48.0
67.844362065,44.0
67.877784602,44.0
67.911207139,31.0
67.944629677,32.0
67.978052214,31.0
68.011474751,31.0
68.044897288,41.0
68.078319826,25.0
68.111742363,29.0
68.145164900,37.0
68.178587437,30.0
68.212009975,42.0
68.245432512,29.0
68.278855049,37.0
68.312277586,31.0
68.345700124,44.0
68.379122661,38.0
68.412545198,44.0
68.445967735,34.0
68.479390273,34.0
68.512812810,44.0
68.546235347,30.0
68.579657884,42.0
68.613080422,30.0
68.646502959,37.0
68.679925496,37.0
68.713348033,40.0
68.746770571,38.0
68.780193108,27.0
68.813615645,27.0
68.847038182,32.0
68.880460720,30.0
68.913883257,33.0
68.947305794,34.0
68.980728331,31.0
69.014150869,30.0
69.047573406,33.0
69.080995943,33.0
69.114418480,29.0
69.147841017,29.0
69.181263555,27.0
69.214686092,30.0
69.248108629,34.0
69.281531166,46.0
69.314953704,30.0
69.348376241,22.0
69.381798778,34.0
69.415221315,41.0
69.448643853,29.0
69.482066390,45.0
69.515488927,36.0
69.548911464,38.0
69.582334002,30.0
69.615756539,39.0
69.649179076,33.0
69.682601613,29.0
69.716024151,36.0
69.749446688,34.0
69.782869225,29.0
69.816291762,39.0
69.849714300,38.0
69.883136837,26.0
69.916559374,28.0
69.949981911,37.0
69.983404449,33.0
70.016826986,28.0
70.050249523,29.0
70.083672060,45.0
70.117094598,39.0
70.150517135,36.0
70.183939672,44.0
70.217362209,30.0
70.250784747,42.0
70.284207284,49.0
70.317629821,25.0
70.351052358,27.0
70.384474895,37.0
70.417897433,41.0
70.451319970,38.0
70.484742507,51.0
70.518165044,38.0
70.551587582,32.0
70.585010119,48.0
70.618432656,32.0
70.651855193,34.0
70.685277731,33.0
70.718700268,27.0
70.752122805,30.0
70.785545342,26.0
70.818967880,41.0
70.852390417,26.0
70.885812954,45.0
70.919235491,34.0
70.952658029,32.0
70.986080566,32.0
71.019503103,32.0
71.052925640,31.0
71.086348178,32.0
71.119770715,25.0
71.153193252,38.0
71.186615789,39.0
71.220038327,27.0
71.253460864,44.0
71.286883401,53.0
71.320305938,42.0
71.353728476,28.0
71.387151013,39.0
71.420573550,32.0
71.453996087,42.0
71.487418625,36.0
71.520841162,39.0
71.554263699,39.0
71.587686236,36.0
71.621108773,52.0
71.654531311,43.0
71.687953848,25.0
71.721376385,36.0
71.754798922,45.0
71.788221460,33.0
71.821643997,29.0
71.855066534,29.0
71.888489071,36.0
71.921911609,39.0
71.955334146,37.0
71.988756683,33.0
72.022179220,28.0
72.055601758,43.0
72.089024295,40.0
72.122446832,39.0
72.155869369,37.0
72.189291907,34.0
72.222714444,36.0
72.256136981,38.0
72.289559518,30.0
72.322982056,32.0
72.356404593,30.0
72.389827130,48.0
72.423249667,30.0
72.456672205,33.0
72.490094742,33.0
72.523517279,48.0
72.556939816,30.0
72.590362354,37.0
72.623784891,50.0
72.657207428,42.0
72.690629965,29.0
72.724052503,43.0
72.757475040,42.0
72.790897577,44.0
72.824320114,54.0
72.857742651,64.0
72.891165189,66.0
72.924587726,91.0
72.958010263,102.0
72.991432800,100.0
73.024855338,76.0
73.058277875,66.0
73.091700412,76.0
73.125122949,92.0
73.158545487,80.0
73.191968024,62.0
73.225390561,58.0
73.258813098,50.0
73.292235636,64.0
73.325658173,51.0
73.359080710,41.0
73.392503247,32.0
73.425925785,58.0
73.459348322,44.0
73.492770859,57.0
73.526193396,29.0
73.559615934,44.0
73.593038471,39.0
73.626461008,20.0
73.659883545,40.0
73.693306083,36.0
73.726728620,37.0
73.760151157,36.0
73.793573694,44.0
73.826996232,36.0
73.860418769,31.0
73.893841306,42.0
73.927263843,44.0
73.960686381,29.0
73.994108918,33.0
74.027531455,31.0
74.060953992,39.0
74.094376529,33.0
74.127799067,39.0
74.161221604,51.0
74.194644141,52.0
74.228066678,53.0
74.261489216,43.0
74.294911753,39.0
74.328334290,43.0
74.361756827,51.0
74.395179365,52.0
74.428601902,63.0
74.462024439,52.0
74.495446976,40.0
74.528869514,48.0
74.562292051,43.0
74.595714588,43.0
74.629137125,53.0
74.662559663,69.0
74.695982200,63.0
74.729404737,67.0
74.762827274,67.0
74.796249812,81.0
74.829672349,76.0
74.863094886,76.0
74.896517423,121.0
74.929939961,131.0
74.963362498,156.0
74.996785035,205.0
75.030207572,280.0
75.063630110,441.0
75.097052647,602.0
75.130475184,784.0
75.163897721,958.0
75.197320259,953.0
75.230742796,815.0
75.264165333,693.0
75.297587870,616.0
75.331010407,613.0
75.364432945,611.0
75.397855482,650.0
75.431278019,530.0
75.464700556,422.0
75.498123094,323.0
75.531545631,225.0
75.564968168,184.0
75.598390705,162.0
75.631813243,104.0
75.665235780,98.0
75.698658317,100.0
75.732080854,85.0
75.765503392,79.0
75.798925929,73.0
75.832348466,66.0
75.865771003,69.0
75.899193541,61.0
75.932616078,65.0
75.966038615,60.0
75.999461152,60.0
76.032883690,45.0
76.066306227,64.0
76.099728764,43.0
76.133151301,48.0
76.166573839,50.0
76.199996376,53.0
76.233418913,60.0
76.266841450,43.0
76.300263988,50.0
76.333686525,45.0
76.367109062,48.0
76.400531599,33.0
76.433954137,55.0
76.467376674,39.0
76.500799211,41.0
76.534221748,39.0
76.567644285,44.0
76.601066823,46.0
76.634489360,44.0
76.667911897,50.0
76.701334434,54.0
76.734756972,54.0
76.768179509,49.0
76.801602046,40.0
76.835024583,42.0
76.868447121,57.0
76.901869658,45.0
76.935292195,54.0
76.968714732,48.0
77.002137270,40.0
77.035559807,41.0
77.068982344,46.0
77.102404881,49.0
77.135827419,32.0
77.169249956,41.0
77.202672493,43.0
77.236095030,34.0
77.269517568,33.0
77.302940105,45.0
77.336362642,40.0
77.369785179,37.0
77.403207717,46.0
77.436630254,34.0
77.470052791,44.0
77.503475328,43.0
77.536897866,31.0
77.570320403,39.0
77.603742940,32.0
77.637165477,48.0
77.670588015,36.0
77.704010552,41.0
77.737433089,41.0
77.770855626,37.0
77.804278163,46.0
77.837700701,43.0
77.871123238,44.0
77.904545775,28.0
77.937968312,40.0
77.971390850,32.0
78.004813387,37.0
78.038235924,40.0
78.071658461,30.0
78.105080999,36.0
78.138503536,37.0
78.171926073,33.0
78.205348610,39.0
78.238771148,38.0
78.272193685,41.0
78.305616222,41.0
78.339038759,46.0
78.372461297,37.0
78.405883834,30.0
78.439306371,40.0
78.472728908,30.0
78.506151446,41.0
78.539573983,32.0
78.572996520,46.0
78.606419057,33.0
78.639841595,42.0
78.673264132,37.0
78.706686669,31.0
78.740109206,33.0
78.773531744,32.0
78.806954281,37.0
78.840376818,32.0
78.873799355,34.0
78.907221893,34.0
78.940644430,39.0
78.974066967,40.0
79.007489504,27.0
79.040912041,45.0
79.074334579,39.0
79.107757116,20.0
79.141179653,43.0
79.174602190,29.0
79.208024728,39.0
79.241447265,38.0
79.274869802,39.0
79.308292339,36.0
79.341714877,46.0
79.375137414,42.0
79.408559951,29.0
79.441982488,37.0
79.475405026,33.0
79.508827563,36.0
79.542250100,34.0
79.575672637,39.0
79.609095175,41.0
79.642517712,29.0
79.675940249,33.0
79.709362786,38.0
79.742785324,38.0
79.776207861,36.0
79.809630398,34.0
79.843052935,36.0
79.876475473,33.0
79.909898010,31.0
79.943320547,39.0
79.976743084,33.0
80.010165622,33.0
80.043588159,26.0
80.077010696,49.0
80.110433233,33.0
80.143855771,33.0
80.177278308,36.0
80.210700845,42.0
80.244123382,46.0
80.277545919,31.0
80.310968457,30.0
80.344390994,28.0
80.377813531,29.0
80.411236068,33.0
80.444658606,43.0
80.478081143,29.0
80.511503680,22.0
80.544926217,39.0
80.578348755,34.0
80.611771292,39.0
80.645193829,29.0
80.678616366,34.0
80.712038904,39.0
80.745461441,31.0
80.778883978,32.0
80.812306515,32.0
80.845729053,53.0
80.879151590,30.0
80.912574127,39.0
80.945996664,26.0
80.979419202,29.0
81.012841739,33.0
81.046264276,45.0
81.079686813,26.0
81.113109351,27.0
81.146531888,27.0
81.179954425,38.0
81.213376962,32.0
81.246799500,32.0
81.280222037,42.0
81.313644574,41.0
81.347067111,42.0
81.380489648,29.0
81.413912186,34.0
81.447334723,38.0
81.480757260,33.0
81.514179797,49.0
81.547602335,41.0
81.581024872,36.0
81.614447409,39.0
81.647869946,21.0
81.681292484,36.0
81.714715021,43.0
81.748137558,37.0
81.781560095,42.0
81.814982633,31.0
81.848405170,37.0
81.881827707,36.0
81.915250244,48.0
81.948672782,30.0
81.982095319,28.0
82.015517856,39.0
82.048940393,29.0
82.082362931,27.0
82.115785468,37.0
82.149208005,34.0
82.182630542,41.0
82.216053080,42.0
82.249475617,46.0
82.282898154,46.0
82.316320691,44.0
82.349743229,34.0
82.383165766,40.0
82.416588303,48.0
82.450010840,33.0
82.483433378,56.0
82.516855915,30.0
82.550278452,42.0
82.583700989,42.0
82.617123526,44.0
82.650546064,42.0
82.683968601,42.0
82.717391138,50.0
82.750813675,53.0
82.784236213,58.0
82.817658750,30.0
82.851081287,49.0
82.884503824,25.0
82.917926362,39.0
82.951348899,28.0
82.984771436,29.0
83.018193973,42.0
83.051616511,39.0
83.085039048,32.0
83.118461585,50.0
83.151884122,44.0
83.185306660,51.0
83.218729197,36.0
83.252151734,45.0
83.285574271,43.0
83.318996809,44.0
83.352419346,57.0
83.385841883,52.0
83.419264420,58.0
83.452686958,61.0
83.486109495,54.0
83.519532032,62.0
83.552954569,83.0
83.586377107,83.0
83.619799644,99.0
83.653222181,101.0
83.686644718,144.0
83.720067256,195.0
83.753489793,251.0
83.786912330,332.0
83.820334867,443.0
83.853757404,526.0
83.887179942,583.0
83.920602479,551.0
83.954025016,486.0
83.987447553,463.0
84.020870091,381.0
84.054292628,372.0
84.087715165,365.0
84.121137702,356.0
84.154560240,358.0
84.187982777,315.0
84.221405314,261.0
84.254827851,252.0
84.288250389,176.0
84.321672926,128.0
84.355095463,109.0
84.388518000,99.0
84.421940538,58.0
84.455363075,67.0
84.488785612,64.0
84.522208149,57.0
84.555630687,72.0
84.589053224,63.0
84.622475761,58.0
84.655898298,28.0
84.689320836,38.0
84.722743373,42.0
84.756165910,56.0
84.789588447,45.0
84.823010985,49.0
84.856433522,41.0
84.889856059,39.0
84.923278596,43.0
84.956701134,38.0
84.990123671,39.0
85.023546208,37.0
85.056968745,45.0
85.090391282,45.0
85.123813820,40.0
85.157236357,46.0
85.190658894,36.0
85.224081431,42.0
85.257503969,40.0
85.290926506,33.0
85.324349043,44.0
85.357771580,44.0
85.391194118,32.0
85.424616655,37.0
85.458039192,42.0
85.491461729,40.0
85.524884267,36.0
85.558306804,40.0
85.591729341,43.0
85.625151878,37.0
85.658574416,38.0
85.691996953,43.0
85.725419490,42.0
85.758842027,38.0
85.792264565,39.0
85.825687102,30.0
85.859109639,40.0
85.892532176,34.0
85.925954714,37.0
85.959377251,32.0
85.992799788,44.0
86.026222325,30.0
86.059644863,37.0
86.093067400,34.0
86.126489937,36.0
86.159912474,34.0
86.193335012,27.0
86.226757549,32.0
86.260180086,43.0
86.293602623,36.0
86.327025160,41.0
86.360447698,44.0
86.393870235,32.0
86.427292772,24.0
86.460715309,43.0
86.494137847,36.0
86.527560384,25.0
86.560982921,27.0
86.594405458,31.0
86.627827996,43.0
86.661250533,36.0
86.694673070,28.0
86.728095607,34.0
86.761518145,37.0
86.794940682,33.0
86.828363219,37.0
86.861785756,32.0
86.895208294,39.0
86.928630831,30.0
86.962053368,33.0
86.995475905,28.0
87.028898443,36.0
87.062320980,18.0
87.095743517,32.0
87.129166054,29.0
87.162588592,32.0
87.196011129,37.0
87.229433666,37.0
87.262856203,25.0
87.296278741,28.0
87.329701278,39.0
87.363123815,38.0
87.396546352,28.0
87.429968890,36.0
87.463391427,31.0
87.496813964,29.0
87.530236501,37.0
87.563659038,38.0
87.597081576,28.0
87.630504113,40.0
87.663926650,36.0
87.697349187,32.0
87.730771725,29.0
87.764194262,31.0
87.797616799,39.0
87.831039336,32.0
87.864461874,32.0
87.897884411,38.0
87.931306948,33.0
87.964729485,25.0
87.998152023,34.0
88.031574560,32.0
88.064997097,34.0
88.098419634,22.0
88.131842172,29.0
88.165264709,27.0
88.198687246,20.0
88.232109783,25.0
88.265532321,26.0
88.298954858,33.0
88.332377395,27.0
88.365799932,28.0
88.399222470,42.0
88.432645007,34.0
88.466067544,38.0
88.499490081,34.0
88.532912619,30.0
88.566335156,33.0
88.599757693,36.0
88.633180230,44.0
88.666602768,31.0
88.700025305,30.0
88.733447842,31.0
88.766870379,25.0
88.800292916,36.0
88.833715454,28.0
88.867137991,28.0
88.900560528,26.0
88.933983065,32.0
88.967405603,29.0
89.000828140,24.0
89.034250677,41.0
89.067673214,38.0
89.101095752,38.0
89.134518289,32.0
89.167940826,19.0
89.201363363,31.0
89.234785901,27.0
89.268208438,25.0
89.301630975,39.0
89.335053512,34.0
89.368476050,36.0
89.401898587,32.0
89.435321124,34.0
89.468743661,34.0
89.502166199,28.0
89.535588736,28.0
89.569011273,15.0
89.602433810,39.0
89.635856348,31.0
89.669278885,25.0
89.702701422,34.0
89.736123959,22.0
89.769546497,34.0
89.802969034,36.0
89.836391571,36.0
89.869814108,34.0
89.903236646,30.0
89.936659183,39.0
89.970081720,36.0
