[Measurement conditions]
Sample identification,
Comment - 1,"Configuration=Reflection-transmission spinner, Owner=User-1, Creation date=5/11/2015 1:51:45 PM"
Comment - 2,"Goniometer=Theta/Theta; Minimum step size 2Theta:0.0001; Minimum step size Omega:0.0001"
Comment - 3,"Sample stage=Reflection-transmission spinner; Minimum step size Phi:0.1"
Comment - 4,"Diffractometer system=EMPYREAN"
Comment - 5,"Measurement program=C:\PANalytical\Data Collector\Programs\Esin Scan.xrdmp, Identifier={545BE9EB-C830-47C9-A564-E4EDE9967014}"
Anode material,Cu
K-Alpha1 wavelength,1.5405980
K-Alpha2 wavelength,1.5444260
Ratio K-Alpha2/K-Alpha1,0.500
Divergence slit,Fixed,0.19mm
Monochromator used,NO
Generator voltage, 45
Tube current, 40
File date and time,29/Jan/2020 10:35
Unit cell,
h k l, 0 0 0
Scan axis,Gonio
Scan range,20.000000001,89.986792989
Scan step size,0.0334225
No. of points, 2094
Scan type,CONTINUOUS
Phi,271.6
Time per step,29.845
[Scan points]
Angle,Intensity
20.016711270,114.0
20.050133807,128.0
20.083556344,112.0
20.116978882,109.0
20.150401419,127.0
20.183823956,103.0
20.217246493,119.0
20.250669031,123.0
20.284091568,116.0
20.317514105,109.0
20.350936642,108.0
20.384359180,131.0
20.417781717,116.0
20.451204254,103.0
20.484626791,127.0
20.518049329,136.0
20.551471866,107.0
20.584894403,101.0
20.618316940,102.0
20.651739478,113.0
20.685162015,91.0
20.718584552,121.0
20.752007089,127.0
20.785429627,114.0
20.818852164,88.0
20.852274701,131.0
20.885697238,108.0
20.919119776,123.0
20.952542313,105.0
20.985964850,117.0
21.019387387,103.0
21.052809925,112.0
21.086232462,102.0
21.119654999,102.0
21.153077536,87.0
21.186500074,119.0
21.219922611,84.0
21.253345148,114.0
21.286767685,102.0
21.320190222,100.0
21.353612760,110.0
21.387035297,98.0
21.420457834,119.0
21.453880371,111.0
21.487302909,87.0
21.520725446,101.0
21.554147983,107.0
21.587570520,89.0
21.620993058,115.0
21.654415595,119.0
21.687838132,100.0
21.721260669,97.0
21.754683207,103.0
21.788105744,95.0
21.821528281,99.0
21.854950818,115.0
21.888373356,102.0
21.921795893,114.0
21.955218430,98.0
21.988640967,103.0
22.022063505,105.0
22.055486042,104.0
22.088908579,101.0
22.122331116,102.0
22.155753654,100.0
22.189176191,100.0
22.222598728,88.0
22.256021265,101.0
22.289443803,103.0
22.322866340,102.0
22.356288877,96.0
22.389711414,96.0
22.423133952,113.0
22.456556489,95.0
22.489979026,91.0
22.523401563,102.0
22.556824100,111.0
22.590246638,105.0
22.623669175,107.0
22.657091712,81.0
22.690514249,92.0
22.723936787,85.0
22.757359324,101.0
22.790781861,75.0
22.824204398,97.0
22.857626936,85.0
22.891049473,93.0
22.924472010,89.0
22.957894547,102.0
22.991317085,91.0
23.024739622,101.0
23.058162159,98.0
23.091584696,100.0
23.125007234,87.0
23.158429771,103.0
23.191852308,112.0
23.225274845,100.0
23.258697383,89.0
23.292119920,81.0
23.325542457,84.0
23.358964994,83.0
23.392387532,93.0
23.425810069,84.0
23.459232606,89.0
23.492655143,100.0
23.526077681,91.0
23.559500218,99.0
23.592922755,73.0
23.626345292,85.0
23.659767830,86.0
23.693190367,81.0
23.726612904,84.0
23.760035441,78.0
23.793457978,100.0
23.826880516,75.0
23.860303053,99.0
23.893725590,91.0
23.927148127,88.0
23.960570665,95.0
23.993993202,121.0
24.027415739,80.0
24.060838276,88.0
24.094260814,74.0
24.127683351,93.0
24.161105888,79.0
24.194528425,89.0
24.227950963,88.0
24.261373500,83.0
24.294796037,61.0
24.328218574,80.0
24.361641112,74.0
24.395063649,72.0
24.428486186,85.0
24.461908723,78.0
24.495331261,86.0
24.528753798,98.0
24.562176335,91.0
24.595598872,97.0
24.629021410,86.0
24.662443947,92.0
24.695866484,105.0
24.729289021,79.0
24.762711559,78.0
24.796134096,79.0
24.829556633,79.0
24.862979170,95.0
24.896401708,84.0
24.929824245,73.0
24.963246782,72.0
24.996669319,68.0
25.030091856,95.0
25.063514394,76.0
25.096936931,85.0
25.130359468,90.0
25.163782005,89.0
25.197204543,81.0
25.230627080,75.0
25.264049617,83.0
25.297472154,80.0
25.330894692,74.0
25.364317229,84.0
25.397739766,86.0
25.431162303,73.0
25.464584841,74.0
25.498007378,78.0
25.531429915,93.0
25.564852452,62.0
25.598274990,61.0
25.631697527,78.0
25.665120064,85.0
25.698542601,81.0
25.731965139,68.0
25.765387676,57.0
25.798810213,60.0
25.832232750,72.0
25.865655288,83.0
25.899077825,68.0
25.932500362,83.0
25.965922899,85.0
25.999345437,77.0
26.032767974,67.0
26.066190511,70.0
26.099613048,81.0
26.133035586,76.0
26.166458123,61.0
26.199880660,83.0
26.233303197,88.0
26.266725734,89.0
26.300148272,74.0
26.333570809,77.0
26.366993346,63.0
26.400415883,65.0
26.433838421,84.0
26.467260958,81.0
26.500683495,67.0
26.534106032,61.0
26.567528570,65.0
26.600951107,66.0
26.634373644,81.0
26.667796181,75.0
26.701218719,84.0
26.734641256,68.0
26.768063793,78.0
26.801486330,78.0
26.834908868,80.0
26.868331405,80.0
26.901753942,65.0
26.935176479,51.0
26.968599017,86.0
27.002021554,62.0
27.035444091,66.0
27.068866628,75.0
27.102289166,52.0
27.135711703,58.0
27.169134240,80.0
27.202556777,76.0
27.235979315,68.0
27.269401852,83.0
27.302824389,105.0
27.336246926,112.0
27.369669464,133.0
27.403092001,109.0
27.436514538,121.0
27.469937075,120.0
27.503359612,107.0
27.536782150,100.0
27.570204687,79.0
27.603627224,78.0
27.637049761,83.0
27.670472299,70.0
27.703894836,70.0
27.737317373,57.0
27.770739910,66.0
27.804162448,61.0
27.837584985,50.0
27.871007522,66.0
27.904430059,83.0
27.937852597,64.0
27.971275134,66.0
28.004697671,48.0
28.038120208,64.0
28.071542746,43.0
28.104965283,65.0
28.138387820,46.0
28.171810357,65.0
28.205232895,75.0
28.238655432,78.0
28.272077969,66.0
28.305500506,64.0
28.338923044,67.0
28.372345581,75.0
28.405768118,63.0
28.439190655,64.0
28.472613193,84.0
28.506035730,60.0
28.539458267,68.0
28.572880804,66.0
28.606303342,61.0
28.639725879,74.0
28.673148416,53.0
28.706570953,60.0
28.739993490,67.0
28.773416028,56.0
28.806838565,52.0
28.840261102,69.0
28.873683639,64.0
28.907106177,76.0
28.940528714,69.0
28.973951251,58.0
29.007373788,44.0
29.040796326,53.0
29.074218863,51.0
29.107641400,38.0
29.141063937,48.0
29.174486475,72.0
29.207909012,54.0
29.241331549,61.0
29.274754086,53.0
29.308176624,68.0
29.341599161,53.0
29.375021698,68.0
29.408444235,67.0
29.441866773,62.0
29.475289310,61.0
29.508711847,48.0
29.542134384,56.0
29.575556922,70.0
29.608979459,60.0
29.642401996,66.0
29.675824533,49.0
29.709247071,63.0
29.742669608,61.0
29.776092145,45.0
29.809514682,56.0
29.842937219,56.0
29.876359757,62.0
29.909782294,68.0
29.943204831,61.0
29.976627368,69.0
30.010049906,46.0
30.043472443,46.0
30.076894980,49.0
30.110317517,63.0
30.143740055,57.0
30.177162592,53.0
30.210585129,64.0
30.244007666,54.0
30.277430204,51.0
30.310852741,51.0
30.344275278,69.0
30.377697815,54.0
30.411120353,56.0
30.444542890,63.0
30.477965427,57.0
30.511387964,70.0
30.544810502,57.0
30.578233039,50.0
30.611655576,64.0
30.645078113,62.0
30.678500651,78.0
30.711923188,74.0
30.745345725,62.0
30.778768262,62.0
30.812190800,74.0
30.845613337,68.0
30.879035874,55.0
30.912458411,80.0
30.945880949,61.0
30.979303486,70.0
31.012726023,69.0
31.046148560,65.0
31.079571097,72.0
31.112993635,80.0
31.146416172,103.0
31.179838709,72.0
31.213261246,96.0
31.246683784,95.0
31.280106321,114.0
31.313528858,107.0
31.346951395,105.0
31.380373933,96.0
31.413796470,141.0
31.447219007,193.0
31.480641544,234.0
31.514064082,358.0
31.547486619,679.0
31.580909156,3376.0
31.614331693,9901.0
31.647754231,5010.0
31.681176768,5343.0
31.714599305,5674.0
31.748021842,9811.0
31.781444380,16662.0
31.814866917,4726.0
31.848289454,10640.0
31.881711991,4209.0
31.915134529,816.0
31.948557066,385.0
31.981979603,314.0
32.015402140,231.0
32.048824678,186.0
32.082247215,150.0
32.115669752,154.0
32.149092289,134.0
32.182514827,113.0
32.215937364,126.0
32.249359901,100.0
32.282782438,108.0
32.316204975,97.0
32.349627513,103.0
32.383050050,77.0
32.416472587,77.0
32.449895124,79.0
32.483317662,80.0
32.516740199,84.0
32.550162736,70.0
32.583585273,69.0
32.617007811,63.0
32.650430348,68.0
32.683852885,67.0
32.717275422,54.0
32.750697960,66.0
32.784120497,64.0
32.817543034,56.0
32.850965571,56.0
32.884388109,48.0
32.917810646,45.0
32.951233183,45.0
32.984655720,57.0
33.018078258,58.0
33.051500795,45.0
33.084923332,58.0
33.118345869,43.0
33.151768407,52.0
33.185190944,42.0
33.218613481,58.0
33.252036018,53.0
33.285458556,53.0
33.318881093,36.0
33.352303630,46.0
33.385726167,55.0
33.419148705,54.0
33.452571242,51.0
33.485993779,40.0
33.519416316,56.0
33.552838853,50.0
33.586261391,51.0
33.619683928,53.0
33.653106465,39.0
33.686529002,43.0
33.719951540,40.0
33.753374077,39.0
33.786796614,42.0
33.820219151,44.0
33.853641689,54.0
33.887064226,36.0
33.920486763,56.0
33.953909300,51.0
33.987331838,38.0
34.020754375,53.0
34.054176912,46.0
34.087599449,41.0
34.121021987,48.0
34.154444524,42.0
34.187867061,48.0
34.221289598,39.0
34.254712136,50.0
34.288134673,38.0
34.321557210,46.0
34.354979747,46.0
34.388402285,39.0
34.421824822,41.0
34.455247359,39.0
34.488669896,45.0
34.522092434,40.0
34.555514971,36.0
34.588937508,41.0
34.622360045,46.0
34.655782583,34.0
34.689205120,39.0
34.722627657,43.0
34.756050194,58.0
34.789472731,34.0
34.822895269,41.0
34.856317806,33.0
34.889740343,40.0
34.923162880,36.0
34.956585418,40.0
34.990007955,43.0
35.023430492,50.0
35.056853029,40.0
35.090275567,30.0
35.123698104,22.0
35.157120641,44.0
35.190543178,41.0
35.223965716,50.0
35.257388253,26.0
35.290810790,34.0
35.324233327,29.0
35.357655865,37.0
35.391078402,46.0
35.424500939,38.0
35.457923476,44.0
35.491346014,40.0
35.524768551,48.0
35.558191088,27.0
35.591613625,38.0
35.625036163,33.0
35.658458700,46.0
35.691881237,32.0
35.725303774,36.0
35.758726312,42.0
35.792148849,56.0
35.825571386,26.0
35.858993923,28.0
35.892416461,33.0
35.925838998,33.0
35.959261535,41.0
35.992684072,46.0
36.026106609,56.0
36.059529147,30.0
36.092951684,36.0
36.126374221,33.0
36.159796758,28.0
36.193219296,39.0
36.226641833,53.0
36.260064370,38.0
36.293486907,57.0
36.326909445,43.0
36.360331982,38.0
36.393754519,28.0
36.427177056,38.0
36.460599594,34.0
36.494022131,41.0
36.527444668,30.0
36.560867205,31.0
36.594289743,37.0
36.627712280,31.0
36.661134817,31.0
36.694557354,39.0
36.727979892,37.0
36.761402429,29.0
36.794824966,28.0
36.828247503,34.0
36.861670041,30.0
36.895092578,37.0
36.928515115,24.0
36.961937652,42.0
36.995360190,28.0
37.028782727,32.0
37.062205264,42.0
37.095627801,29.0
37.129050339,24.0
37.162472876,29.0
37.195895413,27.0
37.229317950,26.0
37.262740487,38.0
37.296163025,39.0
37.329585562,36.0
37.363008099,37.0
37.396430636,33.0
37.429853174,33.0
37.463275711,38.0
37.496698248,22.0
37.530120785,39.0
37.563543323,38.0
37.596965860,24.0
37.630388397,33.0
37.663810934,34.0
37.697233472,28.0
37.730656009,28.0
37.764078546,32.0
37.797501083,41.0
37.830923621,37.0
37.864346158,37.0
37.897768695,32.0
37.931191232,24.0
37.964613770,38.0
37.998036307,33.0
38.031458844,36.0
38.064881381,39.0
38.098303919,32.0
38.131726456,31.0
38.165148993,36.0
38.198571530,34.0
38.231994068,33.0
38.265416605,37.0
38.298839142,29.0
38.332261679,21.0
38.365684217,27.0
38.399106754,30.0
38.432529291,44.0
38.465951828,31.0
38.499374365,36.0
38.532796903,25.0
38.566219440,25.0
38.599641977,32.0
38.633064514,27.0
38.666487052,39.0
38.699909589,33.0
38.733332126,26.0
38.766754663,26.0
38.800177201,32.0
38.833599738,40.0
38.867022275,36.0
38.900444812,29.0
38.933867350,24.0
38.967289887,30.0
39.000712424,33.0
39.034134961,32.0
39.067557499,30.0
39.100980036,33.0
39.134402573,32.0
39.167825110,40.0
39.201247648,32.0
39.234670185,40.0
39.268092722,36.0
39.301515259,26.0
39.334937797,36.0
39.368360334,29.0
39.401782871,30.0
39.435205408,40.0
39.468627946,37.0
39.502050483,46.0
39.535473020,32.0
39.568895557,25.0
39.602318095,33.0
39.635740632,29.0
39.669163169,30.0
39.702585706,27.0
39.736008243,27.0
39.769430781,34.0
39.802853318,36.0
39.836275855,42.0
39.869698392,18.0
39.903120930,41.0
39.936543467,27.0
39.969966004,29.0
40.003388541,28.0
40.036811079,37.0
40.070233616,29.0
40.103656153,34.0
40.137078690,26.0
40.170501228,31.0
40.203923765,29.0
40.237346302,28.0
40.270768839,29.0
40.304191377,31.0
40.337613914,26.0
40.371036451,26.0
40.404458988,34.0
40.437881526,32.0
40.471304063,34.0
40.504726600,28.0
40.538149137,36.0
40.571571675,32.0
40.604994212,37.0
40.638416749,27.0
40.671839286,40.0
40.705261824,24.0
40.738684361,32.0
40.772106898,26.0
40.805529435,33.0
40.838951973,26.0
40.872374510,32.0
40.905797047,43.0
40.939219584,29.0
40.972642121,28.0
41.006064659,32.0
41.039487196,26.0
41.072909733,34.0
41.106332270,22.0
41.139754808,34.0
41.173177345,26.0
41.206599882,22.0
41.240022419,31.0
41.273444957,38.0
41.306867494,29.0
41.340290031,30.0
41.373712568,28.0
41.407135106,32.0
41.440557643,33.0
41.473980180,32.0
41.507402717,22.0
41.540825255,26.0
41.574247792,30.0
41.607670329,27.0
41.641092866,34.0
41.674515404,32.0
41.707937941,40.0
41.741360478,19.0
41.774783015,28.0
41.808205553,26.0
41.841628090,18.0
41.875050627,19.0
41.908473164,25.0
41.941895702,29.0
41.975318239,32.0
42.008740776,19.0
42.042163313,24.0
42.075585851,42.0
42.109008388,31.0
42.142430925,34.0
42.175853462,34.0
42.209275999,31.0
42.242698537,29.0
42.276121074,29.0
42.309543611,37.0
42.342966148,42.0
42.376388686,22.0
42.409811223,25.0
42.443233760,34.0
42.476656297,24.0
42.510078835,36.0
42.543501372,32.0
42.576923909,33.0
42.610346446,24.0
42.643768984,27.0
42.677191521,32.0
42.710614058,37.0
42.744036595,31.0
42.777459133,32.0
42.810881670,42.0
42.844304207,27.0
42.877726744,27.0
42.911149282,26.0
42.944571819,40.0
42.977994356,33.0
43.011416893,19.0
43.044839431,25.0
43.078261968,31.0
43.111684505,28.0
43.145107042,28.0
43.178529580,26.0
43.211952117,31.0
43.245374654,34.0
43.278797191,27.0
43.312219729,16.0
43.345642266,27.0
43.379064803,28.0
43.412487340,17.0
43.445909877,29.0
43.479332415,26.0
43.512754952,24.0
43.546177489,28.0
43.579600026,19.0
43.613022564,33.0
43.646445101,22.0
43.679867638,30.0
43.713290175,32.0
43.746712713,24.0
43.780135250,27.0
43.813557787,27.0
43.846980324,37.0
43.880402862,29.0
43.913825399,27.0
43.947247936,26.0
43.980670473,27.0
44.014093011,20.0
44.047515548,37.0
44.080938085,27.0
44.114360622,28.0
44.147783160,26.0
44.181205697,20.0
44.214628234,31.0
44.248050771,30.0
44.281473309,24.0
44.314895846,25.0
44.348318383,32.0
44.381740920,30.0
44.415163458,39.0
44.448585995,32.0
44.482008532,27.0
44.515431069,25.0
44.548853607,33.0
44.582276144,32.0
44.615698681,28.0
44.649121218,27.0
44.682543755,52.0
44.715966293,33.0
44.749388830,34.0
44.782811367,31.0
44.816233904,32.0
44.849656442,28.0
44.883078979,34.0
44.916501516,31.0
44.949924053,45.0
44.983346591,29.0
45.016769128,32.0
45.050191665,42.0
45.083614202,48.0
45.117036740,49.0
45.150459277,44.0
45.183881814,46.0
45.217304351,72.0
45.250726889,136.0
45.284149426,419.0
45.317571963,589.0
45.350994500,405.0
45.384417038,533.0
45.417839575,727.0
45.451262112,1001.0
45.484684649,1851.0
45.518107187,1812.0
45.551529724,1206.0
45.584952261,849.0
45.618374798,965.0
45.651797336,830.0
45.685219873,400.0
45.718642410,180.0
45.752064947,110.0
45.785487485,90.0
45.818910022,67.0
45.852332559,61.0
45.885755096,53.0
45.919177633,50.0
45.952600171,37.0
45.986022708,46.0
46.019445245,40.0
46.052867782,43.0
46.086290320,37.0
46.119712857,30.0
46.153135394,44.0
46.186557931,26.0
46.219980469,29.0
46.253403006,31.0
46.286825543,37.0
46.320248080,49.0
46.353670618,44.0
46.387093155,28.0
46.420515692,28.0
46.453938229,38.0
46.487360767,20.0
46.520783304,24.0
46.554205841,31.0
46.587628378,24.0
46.621050916,29.0
46.654473453,33.0
46.687895990,32.0
46.721318527,25.0
46.754741065,22.0
46.788163602,41.0
46.821586139,25.0
46.855008676,34.0
46.888431214,28.0
46.921853751,30.0
46.955276288,30.0
46.988698825,28.0
47.022121362,30.0
47.055543900,27.0
47.088966437,32.0
47.122388974,27.0
47.155811511,40.0
47.189234049,25.0
47.222656586,21.0
47.256079123,27.0
47.289501660,36.0
47.322924198,33.0
47.356346735,25.0
47.389769272,20.0
47.423191809,24.0
47.456614347,21.0
47.490036884,37.0
47.523459421,28.0
47.556881958,28.0
47.590304496,28.0
47.623727033,36.0
47.657149570,24.0
47.690572107,25.0
47.723994645,21.0
47.757417182,34.0
47.790839719,19.0
47.824262256,28.0
47.857684794,25.0
47.891107331,28.0
47.924529868,27.0
47.957952405,31.0
47.991374943,26.0
48.024797480,30.0
48.058220017,24.0
48.091642554,17.0
48.125065092,30.0
48.158487629,20.0
48.191910166,28.0
48.225332703,28.0
48.258755240,28.0
48.292177778,31.0
48.325600315,37.0
48.359022852,37.0
48.392445389,20.0
48.425867927,18.0
48.459290464,19.0
48.492713001,15.0
48.526135538,38.0
48.559558076,20.0
48.592980613,27.0
48.626403150,26.0
48.659825687,29.0
48.693248225,16.0
48.726670762,24.0
48.760093299,29.0
48.793515836,36.0
48.826938374,26.0
48.860360911,25.0
48.893783448,17.0
48.927205985,24.0
48.960628523,24.0
48.994051060,31.0
49.027473597,12.0
49.060896134,20.0
49.094318672,21.0
49.127741209,31.0
49.161163746,24.0
49.194586283,16.0
49.228008821,20.0
49.261431358,27.0
49.294853895,27.0
49.328276432,25.0
49.361698970,17.0
49.395121507,34.0
49.428544044,27.0
49.461966581,30.0
49.495389118,30.0
49.528811656,28.0
49.562234193,28.0
49.595656730,34.0
49.629079267,25.0
49.662501805,24.0
49.695924342,27.0
49.729346879,31.0
49.762769416,29.0
49.796191954,24.0
49.829614491,22.0
49.863037028,16.0
49.896459565,28.0
49.929882103,18.0
49.963304640,17.0
49.996727177,14.0
50.030149714,20.0
50.063572252,20.0
50.096994789,28.0
50.130417326,24.0
50.163839863,25.0
50.197262401,27.0
50.230684938,17.0
50.264107475,21.0
50.297530012,22.0
50.330952550,16.0
50.364375087,22.0
50.397797624,22.0
50.431220161,32.0
50.464642699,26.0
50.498065236,22.0
50.531487773,24.0
50.564910310,21.0
50.598332848,26.0
50.631755385,14.0
50.665177922,36.0
50.698600459,16.0
50.732022996,22.0
50.765445534,16.0
50.798868071,20.0
50.832290608,22.0
50.865713145,21.0
50.899135683,16.0
50.932558220,28.0
50.965980757,25.0
50.999403294,27.0
51.032825832,25.0
51.066248369,20.0
51.099670906,13.0
51.133093443,20.0
51.166515981,19.0
51.199938518,28.0
51.233361055,22.0
51.266783592,21.0
51.300206130,13.0
51.333628667,25.0
51.367051204,18.0
51.400473741,25.0
51.433896279,20.0
51.467318816,17.0
51.500741353,14.0
51.534163890,28.0
51.567586428,17.0
51.601008965,17.0
51.634431502,20.0
51.667854039,21.0
51.701276577,25.0
51.734699114,34.0
51.768121651,22.0
51.801544188,20.0
51.834966726,24.0
51.868389263,27.0
51.901811800,34.0
51.935234337,18.0
51.968656874,29.0
52.002079412,20.0
52.035501949,24.0
52.068924486,17.0
52.102347023,25.0
52.135769561,22.0
52.169192098,20.0
52.202614635,20.0
52.236037172,26.0
52.269459710,16.0
52.302882247,20.0
52.336304784,21.0
52.369727321,26.0
52.403149859,10.0
52.436572396,17.0
52.469994933,20.0
52.503417470,25.0
52.536840008,18.0
52.570262545,18.0
52.603685082,17.0
52.637107619,30.0
52.670530157,21.0
52.703952694,21.0
52.737375231,20.0
52.770797768,18.0
52.804220306,21.0
52.837642843,18.0
52.871065380,22.0
52.904487917,26.0
52.937910455,29.0
52.971332992,24.0
53.004755529,21.0
53.038178066,16.0
53.071600604,29.0
53.105023141,21.0
53.138445678,21.0
53.171868215,24.0
53.205290752,18.0
53.238713290,21.0
53.272135827,15.0
53.305558364,22.0
53.338980901,16.0
53.372403439,16.0
53.405825976,16.0
53.439248513,30.0
53.472671050,24.0
53.506093588,22.0
53.539516125,32.0
53.572938662,21.0
53.606361199,29.0
53.639783737,21.0
53.673206274,36.0
53.706628811,31.0
53.740051348,49.0
53.773473886,64.0
53.806896423,70.0
53.840318960,66.0
53.873741497,95.0
53.907164035,129.0
53.940586572,127.0
53.974009109,61.0
54.007431646,53.0
54.040854184,89.0
54.074276721,65.0
54.107699258,50.0
54.141121795,20.0
54.174544333,22.0
54.207966870,16.0
54.241389407,18.0
54.274811944,26.0
54.308234482,28.0
54.341657019,20.0
54.375079556,24.0
54.408502093,25.0
54.441924630,21.0
54.475347168,16.0
54.508769705,17.0
54.542192242,28.0
54.575614779,30.0
54.609037317,24.0
54.642459854,21.0
54.675882391,18.0
54.709304928,13.0
54.742727466,15.0
54.776150003,26.0
54.809572540,27.0
54.842995077,27.0
54.876417615,19.0
54.909840152,13.0
54.943262689,20.0
54.976685226,24.0
55.010107764,29.0
55.043530301,17.0
55.076952838,19.0
55.110375375,20.0
55.143797913,21.0
55.177220450,17.0
55.210642987,14.0
55.244065524,36.0
55.277488062,14.0
55.310910599,26.0
55.344333136,19.0
55.377755673,22.0
55.411178211,20.0
55.444600748,15.0
55.478023285,27.0
55.511445822,29.0
55.544868360,28.0
55.578290897,21.0
55.611713434,22.0
55.645135971,25.0
55.678558508,19.0
55.711981046,26.0
55.745403583,19.0
55.778826120,17.0
55.812248657,27.0
55.845671195,16.0
55.879093732,27.0
55.912516269,22.0
55.945938806,28.0
55.979361344,18.0
56.012783881,27.0
56.046206418,30.0
56.079628955,19.0
56.113051493,28.0
56.146474030,22.0
56.179896567,22.0
56.213319104,27.0
56.246741642,30.0
56.280164179,50.0
56.313586716,39.0
56.347009253,72.0
56.380431791,87.0
56.413854328,117.0
56.447276865,66.0
56.480699402,89.0
56.514121940,100.0
56.547544477,99.0
56.580967014,72.0
56.614389551,60.0
56.647812089,56.0
56.681234626,48.0
56.714657163,44.0
56.748079700,34.0
56.781502238,22.0
56.814924775,28.0
56.848347312,21.0
56.881769849,28.0
56.915192386,31.0
56.948614924,27.0
56.982037461,18.0
57.015459998,26.0
57.048882535,16.0
57.082305073,21.0
57.115727610,15.0
57.149150147,28.0
57.182572684,12.0
57.215995222,18.0
57.249417759,16.0
57.282840296,18.0
57.316262833,21.0
57.349685371,10.0
57.383107908,18.0
57.416530445,12.0
57.449952982,13.0
57.483375520,22.0
57.516798057,25.0
57.550220594,18.0
57.583643131,24.0
57.617065669,19.0
57.650488206,18.0
57.683910743,28.0
57.717333280,20.0
57.750755818,25.0
57.784178355,22.0
57.817600892,17.0
57.851023429,12.0
57.884445967,19.0
57.917868504,25.0
57.951291041,19.0
57.984713578,22.0
58.018136116,24.0
58.051558653,14.0
58.084981190,17.0
58.118403727,15.0
58.151826264,17.0
58.185248802,19.0
58.218671339,20.0
58.252093876,18.0
58.285516413,18.0
58.318938951,16.0
58.352361488,20.0
58.385784025,24.0
58.419206562,21.0
58.452629100,20.0
58.486051637,13.0
58.519474174,17.0
58.552896711,19.0
58.586319249,20.0
58.619741786,16.0
58.653164323,10.0
58.686586860,14.0
58.720009398,19.0
58.753431935,16.0
58.786854472,21.0
58.820277009,14.0
58.853699547,19.0
58.887122084,19.0
58.920544621,21.0
58.953967158,22.0
58.987389696,17.0
59.020812233,20.0
59.054234770,20.0
59.087657307,19.0
59.121079845,14.0
59.154502382,13.0
59.187924919,24.0
59.221347456,10.0
59.254769994,18.0
59.288192531,18.0
59.321615068,25.0
59.355037605,14.0
59.388460142,16.0
59.421882680,18.0
59.455305217,27.0
59.488727754,20.0
59.522150291,18.0
59.555572829,17.0
59.588995366,27.0
59.622417903,22.0
59.655840440,17.0
59.689262978,5.0
59.722685515,16.0
59.756108052,18.0
59.789530589,16.0
59.822953127,17.0
59.856375664,15.0
59.889798201,16.0
59.923220738,17.0
59.956643276,17.0
59.990065813,19.0
60.023488350,25.0
60.056910887,14.0
60.090333425,17.0
60.123755962,15.0
60.157178499,21.0
60.190601036,18.0
60.224023574,12.0
60.257446111,18.0
60.290868648,19.0
60.324291185,20.0
60.357713723,24.0
60.391136260,15.0
60.424558797,20.0
60.457981334,10.0
60.491403872,17.0
60.524826409,12.0
60.558248946,18.0
60.591671483,19.0
60.625094020,14.0
60.658516558,18.0
60.691939095,21.0
60.725361632,18.0
60.758784169,16.0
60.792206707,20.0
60.825629244,18.0
60.859051781,21.0
60.892474318,20.0
60.925896856,25.0
60.959319393,14.0
60.992741930,20.0
61.026164467,19.0
61.059587005,18.0
61.093009542,17.0
61.126432079,28.0
61.159854616,16.0
61.193277154,20.0
61.226699691,14.0
61.260122228,28.0
61.293544765,13.0
61.326967303,16.0
61.360389840,16.0
61.393812377,24.0
61.427234914,19.0
61.460657452,18.0
61.494079989,20.0
61.527502526,18.0
61.560925063,21.0
61.594347601,20.0
61.627770138,17.0
61.661192675,19.0
61.694615212,21.0
61.728037750,21.0
61.761460287,17.0
61.794882824,17.0
61.828305361,19.0
61.861727898,24.0
61.895150436,20.0
61.928572973,28.0
61.961995510,19.0
61.995418047,19.0
62.028840585,16.0
62.062263122,18.0
62.095685659,17.0
62.129108196,24.0
62.162530734,27.0
62.195953271,28.0
62.229375808,14.0
62.262798345,26.0
62.296220883,22.0
62.329643420,22.0
62.363065957,19.0
62.396488494,27.0
62.429911032,25.0
62.463333569,29.0
62.496756106,22.0
62.530178643,18.0
62.563601181,20.0
62.597023718,27.0
62.630446255,20.0
62.663868792,25.0
62.697291330,20.0
62.730713867,19.0
62.764136404,22.0
62.797558941,16.0
62.830981479,18.0
62.864404016,18.0
62.897826553,18.0
62.931249090,26.0
62.964671628,16.0
62.998094165,24.0
63.031516702,21.0
63.064939239,15.0
63.098361776,18.0
63.131784314,16.0
63.165206851,18.0
63.198629388,18.0
63.232051925,18.0
63.265474463,22.0
63.298897000,14.0
63.332319537,26.0
63.365742074,26.0
63.399164612,27.0
63.432587149,25.0
63.466009686,18.0
63.499432223,16.0
63.532854761,16.0
63.566277298,20.0
63.599699835,19.0
63.633122372,26.0
63.666544910,27.0
63.699967447,22.0
63.733389984,24.0
63.766812521,10.0
63.800235059,26.0
63.833657596,15.0
63.867080133,25.0
63.900502670,29.0
63.933925208,18.0
63.967347745,21.0
64.000770282,16.0
64.034192819,18.0
64.067615357,27.0
64.101037894,26.0
64.134460431,25.0
64.167882968,17.0
64.201305505,15.0
64.234728043,28.0
64.268150580,18.0
64.301573117,26.0
64.334995654,17.0
64.368418192,20.0
64.401840729,22.0
64.435263266,22.0
64.468685803,18.0
64.502108341,22.0
64.535530878,26.0
64.568953415,22.0
64.602375952,26.0
64.635798490,17.0
64.669221027,20.0
64.702643564,17.0
64.736066101,22.0
64.769488639,25.0
64.802911176,26.0
64.836333713,37.0
64.869756250,21.0
64.903178788,22.0
64.936601325,28.0
64.970023862,33.0
65.003446399,30.0
65.036868937,31.0
65.070291474,24.0
65.103714011,24.0
65.137136548,26.0
65.170559086,37.0
65.203981623,22.0
65.237404160,24.0
65.270826697,22.0
65.304249235,17.0
65.337671772,22.0
65.371094309,22.0
65.404516846,21.0
65.437939383,22.0
65.471361921,16.0
65.504784458,24.0
65.538206995,36.0
65.571629532,31.0
65.605052070,16.0
65.638474607,31.0
65.671897144,33.0
65.705319681,34.0
65.738742219,28.0
65.772164756,27.0
65.805587293,25.0
65.839009830,30.0
65.872432368,28.0
65.905854905,50.0
65.939277442,39.0
65.972699979,39.0
66.006122517,54.0
66.039545054,48.0
66.072967591,80.0
66.106390128,246.0
66.139812666,445.0
66.173235203,334.0
66.206657740,270.0
66.240080277,636.0
66.273502815,1299.0
66.306925352,728.0
66.340347889,382.0
66.373770426,241.0
66.407192964,238.0
66.440615501,644.0
66.474038038,507.0
66.507460575,172.0
66.540883113,76.0
66.574305650,60.0
66.607728187,54.0
66.641150724,51.0
66.674573261,52.0
66.707995799,29.0
66.741418336,37.0
66.774840873,29.0
66.808263410,29.0
66.841685948,20.0
66.875108485,22.0
66.908531022,27.0
66.941953559,20.0
66.975376097,13.0
67.008798634,28.0
67.042221171,24.0
67.075643708,24.0
67.109066246,27.0
67.142488783,27.0
67.175911320,20.0
67.209333857,33.0
67.242756395,28.0
67.276178932,26.0
67.309601469,25.0
67.343024006,27.0
67.376446544,24.0
67.409869081,17.0
67.443291618,26.0
67.476714155,28.0
67.510136693,24.0
67.543559230,17.0
67.576981767,28.0
67.610404304,32.0
67.643826842,27.0
67.677249379,20.0
67.710671916,25.0
67.744094453,20.0
67.777516991,14.0
67.810939528,27.0
67.844362065,34.0
67.877784602,30.0
67.911207139,29.0
67.944629677,18.0
67.978052214,26.0
68.011474751,17.0
68.044897288,25.0
68.078319826,19.0
68.111742363,27.0
68.145164900,24.0
68.178587437,17.0
68.212009975,19.0
68.245432512,17.0
68.278855049,12.0
68.312277586,12.0
68.345700124,20.0
68.379122661,28.0
68.412545198,26.0
68.445967735,22.0
68.479390273,18.0
68.512812810,18.0
68.546235347,17.0
68.579657884,16.0
68.613080422,18.0
68.646502959,15.0
68.679925496,18.0
68.713348033,12.0
68.746770571,22.0
68.780193108,14.0
68.813615645,18.0
68.847038182,20.0
68.880460720,22.0
68.913883257,20.0
68.947305794,19.0
68.980728331,24.0
69.014150869,14.0
69.047573406,21.0
69.080995943,13.0
69.114418480,19.0
69.147841017,31.0
69.181263555,25.0
69.214686092,26.0
69.248108629,22.0
69.281531166,17.0
69.314953704,14.0
69.348376241,12.0
69.381798778,20.0
69.415221315,14.0
69.448643853,17.0
69.482066390,20.0
69.515488927,22.0
69.548911464,26.0
69.582334002,29.0
69.615756539,15.0
69.649179076,18.0
69.682601613,22.0
69.716024151,16.0
69.749446688,20.0
69.782869225,13.0
69.816291762,24.0
69.849714300,25.0
69.883136837,42.0
69.916559374,25.0
69.949981911,28.0
69.983404449,22.0
70.016826986,22.0
70.050249523,24.0
70.083672060,17.0
70.117094598,33.0
70.150517135,19.0
70.183939672,15.0
70.217362209,21.0
70.250784747,22.0
70.284207284,21.0
70.317629821,21.0
70.351052358,21.0
70.384474895,18.0
70.417897433,22.0
70.451319970,19.0
70.484742507,26.0
70.518165044,19.0
70.551587582,22.0
70.585010119,17.0
70.618432656,28.0
70.651855193,19.0
70.685277731,28.0
70.718700268,17.0
70.752122805,18.0
70.785545342,24.0
70.818967880,16.0
70.852390417,18.0
70.885812954,18.0
70.919235491,21.0
70.952658029,14.0
70.986080566,24.0
71.019503103,30.0
71.052925640,19.0
71.086348178,16.0
71.119770715,33.0
71.153193252,25.0
71.186615789,19.0
71.220038327,19.0
71.253460864,26.0
71.286883401,18.0
71.320305938,22.0
71.353728476,27.0
71.387151013,19.0
71.420573550,16.0
71.453996087,16.0
71.487418625,20.0
71.520841162,20.0
71.554263699,19.0
71.587686236,17.0
71.621108773,32.0
71.654531311,24.0
71.687953848,20.0
71.721376385,29.0
71.754798922,24.0
71.788221460,24.0
71.821643997,14.0
71.855066534,21.0
71.888489071,20.0
71.921911609,13.0
71.955334146,16.0
71.988756683,25.0
72.022179220,25.0
72.055601758,26.0
72.089024295,24.0
72.122446832,22.0
72.155869369,33.0
72.189291907,30.0
72.222714444,19.0
72.256136981,21.0
72.289559518,29.0
72.322982056,31.0
72.356404593,22.0
72.389827130,10.0
72.423249667,24.0
72.456672205,29.0
72.490094742,24.0
72.523517279,30.0
72.556939816,22.0
72.590362354,17.0
72.623784891,29.0
72.657207428,18.0
72.690629965,24.0
72.724052503,14.0
72.757475040,15.0
72.790897577,28.0
72.824320114,30.0
72.857742651,18.0
72.891165189,15.0
72.924587726,33.0
72.958010263,36.0
72.991432800,52.0
73.024855338,41.0
73.058277875,41.0
73.091700412,39.0
73.125122949,53.0
73.158545487,44.0
73.191968024,37.0
73.225390561,44.0
73.258813098,38.0
73.292235636,28.0
73.325658173,30.0
73.359080710,29.0
73.392503247,19.0
73.425925785,26.0
73.459348322,20.0
73.492770859,17.0
73.526193396,24.0
73.559615934,19.0
73.593038471,17.0
73.626461008,19.0
73.659883545,20.0
73.693306083,26.0
73.726728620,18.0
73.760151157,27.0
73.793573694,21.0
73.826996232,19.0
73.860418769,25.0
73.893841306,25.0
73.927263843,31.0
73.960686381,20.0
73.994108918,21.0
74.027531455,21.0
74.060953992,24.0
74.094376529,22.0
74.127799067,17.0
74.161221604,21.0
74.194644141,27.0
74.228066678,34.0
74.261489216,36.0
74.294911753,21.0
74.328334290,21.0
74.361756827,28.0
74.395179365,26.0
74.428601902,19.0
74.462024439,20.0
74.495446976,27.0
74.528869514,17.0
74.562292051,25.0
74.595714588,30.0
74.629137125,21.0
74.662559663,38.0
74.695982200,19.0
74.729404737,19.0
74.762827274,28.0
74.796249812,30.0
74.829672349,25.0
74.863094886,29.0
74.896517423,21.0
74.929939961,22.0
74.963362498,29.0
74.996785035,36.0
75.030207572,33.0
75.063630110,60.0
75.097052647,90.0
75.130475184,104.0
75.163897721,186.0
75.197320259,254.0
75.230742796,264.0
75.264165333,198.0
75.297587870,214.0
75.331010407,186.0
75.364432945,168.0
75.397855482,158.0
75.431278019,182.0
75.464700556,216.0
75.498123094,176.0
75.531545631,127.0
75.564968168,77.0
75.598390705,49.0
75.631813243,55.0
75.665235780,72.0
75.698658317,81.0
75.732080854,67.0
75.765503392,42.0
75.798925929,27.0
75.832348466,25.0
75.865771003,33.0
75.899193541,36.0
75.932616078,29.0
75.966038615,22.0
75.999461152,22.0
76.032883690,25.0
76.066306227,26.0
76.099728764,27.0
76.133151301,17.0
76.166573839,24.0
76.199996376,27.0
76.233418913,29.0
76.266841450,28.0
76.300263988,20.0
76.333686525,21.0
76.367109062,22.0
76.400531599,25.0
76.433954137,17.0
76.467376674,21.0
76.500799211,22.0
76.534221748,19.0
76.567644285,24.0
76.601066823,18.0
76.634489360,25.0
76.667911897,21.0
76.701334434,21.0
76.734756972,26.0
76.768179509,25.0
76.801602046,20.0
76.835024583,24.0
76.868447121,27.0
76.901869658,27.0
76.935292195,27.0
76.968714732,30.0
77.002137270,18.0
77.035559807,22.0
77.068982344,19.0
77.102404881,25.0
77.135827419,20.0
77.169249956,26.0
77.202672493,18.0
77.236095030,25.0
77.269517568,19.0
77.302940105,25.0
77.336362642,17.0
77.369785179,17.0
77.403207717,21.0
77.436630254,29.0
77.470052791,20.0
77.503475328,29.0
77.536897866,22.0
77.570320403,21.0
77.603742940,13.0
77.637165477,16.0
77.670588015,28.0
77.704010552,24.0
77.737433089,21.0
77.770855626,20.0
77.804278163,25.0
77.837700701,19.0
77.871123238,19.0
77.904545775,27.0
77.937968312,19.0
77.971390850,19.0
78.004813387,17.0
78.038235924,17.0
78.071658461,25.0
78.105080999,19.0
78.138503536,18.0
78.171926073,24.0
78.205348610,18.0
78.238771148,24.0
78.272193685,26.0
78.305616222,22.0
78.339038759,15.0
78.372461297,14.0
78.405883834,19.0
78.439306371,10.0
78.472728908,29.0
78.506151446,20.0
78.539573983,19.0
78.572996520,15.0
78.606419057,24.0
78.639841595,20.0
78.673264132,18.0
78.706686669,17.0
78.740109206,20.0
78.773531744,17.0
78.806954281,18.0
78.840376818,18.0
78.873799355,15.0
78.907221893,16.0
78.940644430,19.0
78.974066967,21.0
79.007489504,18.0
79.040912041,14.0
79.074334579,24.0
79.107757116,19.0
79.141179653,15.0
79.174602190,13.0
79.208024728,18.0
79.241447265,20.0
79.274869802,18.0
79.308292339,15.0
79.341714877,16.0
79.375137414,14.0
79.408559951,22.0
79.441982488,19.0
79.475405026,14.0
79.508827563,25.0
79.542250100,27.0
79.575672637,22.0
79.609095175,17.0
79.642517712,18.0
79.675940249,22.0
79.709362786,22.0
79.742785324,16.0
79.776207861,29.0
79.809630398,14.0
79.843052935,22.0
79.876475473,27.0
79.909898010,10.0
79.943320547,16.0
79.976743084,25.0
80.010165622,20.0
80.043588159,24.0
80.077010696,16.0
80.110433233,18.0
80.143855771,21.0
80.177278308,14.0
80.210700845,25.0
80.244123382,30.0
80.277545919,16.0
80.310968457,20.0
80.344390994,27.0
80.377813531,21.0
80.411236068,19.0
80.444658606,17.0
80.478081143,28.0
80.511503680,19.0
80.544926217,19.0
80.578348755,24.0
80.611771292,29.0
80.645193829,18.0
80.678616366,22.0
80.712038904,16.0
80.745461441,20.0
80.778883978,16.0
80.812306515,8.0
80.845729053,30.0
80.879151590,28.0
80.912574127,20.0
80.945996664,15.0
80.979419202,25.0
81.012841739,24.0
81.046264276,21.0
81.079686813,18.0
81.113109351,22.0
81.146531888,30.0
81.179954425,20.0
81.213376962,26.0
81.246799500,22.0
81.280222037,17.0
81.313644574,16.0
81.347067111,30.0
81.380489648,19.0
81.413912186,26.0
81.447334723,15.0
81.480757260,28.0
81.514179797,22.0
81.547602335,15.0
81.581024872,17.0
81.614447409,20.0
81.647869946,17.0
81.681292484,27.0
81.714715021,12.0
81.748137558,18.0
81.781560095,18.0
81.814982633,14.0
81.848405170,22.0
81.881827707,18.0
81.915250244,13.0
81.948672782,16.0
81.982095319,12.0
82.015517856,19.0
82.048940393,19.0
82.082362931,26.0
82.115785468,13.0
82.149208005,19.0
82.182630542,28.0
82.216053080,17.0
82.249475617,19.0
82.282898154,16.0
82.316320691,25.0
82.349743229,36.0
82.383165766,27.0
82.416588303,27.0
82.450010840,21.0
82.483433378,16.0
82.516855915,18.0
82.550278452,16.0
82.583700989,28.0
82.617123526,24.0
82.650546064,19.0
82.683968601,26.0
82.717391138,22.0
82.750813675,37.0
82.784236213,32.0
82.817658750,29.0
82.851081287,21.0
82.884503824,27.0
82.917926362,18.0
82.951348899,27.0
82.984771436,28.0
83.018193973,20.0
83.051616511,29.0
83.085039048,25.0
83.118461585,26.0
83.151884122,31.0
83.185306660,31.0
83.218729197,29.0
83.252151734,24.0
83.285574271,22.0
83.318996809,30.0
83.352419346,33.0
83.385841883,32.0
83.419264420,40.0
83.452686958,36.0
83.486109495,22.0
83.519532032,37.0
83.552954569,40.0
83.586377107,34.0
83.619799644,42.0
83.653222181,42.0
83.686644718,60.0
83.720067256,58.0
83.753489793,93.0
83.786912330,171.0
83.820334867,418.0
83.853757404,672.0
83.887179942,696.0
83.920602479,471.0
83.954025016,358.0
83.987447553,317.0
84.020870091,291.0
84.054292628,245.0
84.087715165,381.0
84.121137702,453.0
84.154560240,384.0
84.187982777,251.0
84.221405314,175.0
84.254827851,197.0
84.288250389,128.0
84.321672926,85.0
84.355095463,57.0
84.388518000,53.0
84.421940538,41.0
84.455363075,39.0
84.488785612,33.0
84.522208149,36.0
84.555630687,28.0
84.589053224,22.0
84.622475761,34.0
84.655898298,19.0
84.689320836,28.0
84.722743373,30.0
84.756165910,21.0
84.789588447,19.0
84.823010985,16.0
84.856433522,22.0
84.889856059,27.0
84.923278596,31.0
84.956701134,25.0
84.990123671,25.0
85.023546208,26.0
85.056968745,16.0
85.090391282,19.0
85.123813820,15.0
85.157236357,24.0
85.190658894,22.0
85.224081431,22.0
85.257503969,26.0
85.290926506,21.0
85.324349043,20.0
85.357771580,31.0
85.391194118,14.0
85.424616655,25.0
85.458039192,22.0
85.491461729,16.0
85.524884267,24.0
85.558306804,19.0
85.591729341,19.0
85.625151878,18.0
85.658574416,25.0
85.691996953,21.0
85.725419490,30.0
85.758842027,17.0
85.792264565,37.0
85.825687102,22.0
85.859109639,30.0
85.892532176,17.0
85.925954714,19.0
85.959377251,20.0
85.992799788,24.0
86.026222325,15.0
86.059644863,29.0
86.093067400,28.0
86.126489937,18.0
86.159912474,20.0
86.193335012,27.0
86.226757549,14.0
86.260180086,22.0
86.293602623,16.0
86.327025160,29.0
86.360447698,28.0
86.393870235,24.0
86.427292772,17.0
86.460715309,32.0
86.494137847,16.0
86.527560384,18.0
86.560982921,19.0
86.594405458,16.0
86.627827996,19.0
86.661250533,16.0
86.694673070,24.0
86.728095607,24.0
86.761518145,27.0
86.794940682,19.0
86.828363219,18.0
86.861785756,20.0
86.895208294,15.0
86.928630831,26.0
86.962053368,17.0
86.995475905,17.0
87.028898443,18.0
87.062320980,16.0
87.095743517,21.0
87.129166054,25.0
87.162588592,18.0
87.196011129,25.0
87.229433666,21.0
87.262856203,19.0
87.296278741,10.0
87.329701278,24.0
87.363123815,19.0
87.396546352,34.0
87.429968890,20.0
87.463391427,19.0
87.496813964,14.0
87.530236501,22.0
87.563659038,14.0
87.597081576,13.0
87.630504113,14.0
87.663926650,9.0
87.697349187,24.0
87.730771725,21.0
87.764194262,17.0
87.797616799,13.0
87.831039336,17.0
87.864461874,20.0
87.897884411,22.0
87.931306948,12.0
87.964729485,26.0
87.998152023,28.0
88.031574560,21.0
88.064997097,8.0
88.098419634,24.0
88.131842172,18.0
88.165264709,24.0
88.198687246,19.0
88.232109783,18.0
88.265532321,17.0
88.298954858,21.0
88.332377395,22.0
88.365799932,17.0
88.399222470,13.0
88.432645007,26.0
88.466067544,8.0
88.499490081,27.0
88.532912619,20.0
88.566335156,15.0
88.599757693,22.0
88.633180230,9.0
88.666602768,16.0
88.700025305,18.0
88.733447842,21.0
88.766870379,14.0
88.800292916,18.0
88.833715454,18.0
88.867137991,18.0
88.900560528,19.0
88.933983065,20.0
88.967405603,25.0
89.000828140,19.0
89.034250677,17.0
89.067673214,19.0
89.101095752,14.0
89.134518289,15.0
89.167940826,18.0
89.201363363,21.0
89.234785901,16.0
89.268208438,15.0
89.301630975,17.0
89.335053512,15.0
89.368476050,17.0
89.401898587,14.0
89.435321124,10.0
89.468743661,17.0
89.502166199,20.0
89.535588736,26.0
89.569011273,15.0
89.602433810,21.0
89.635856348,17.0
89.669278885,28.0
89.702701422,16.0
89.736123959,20.0
89.769546497,21.0
89.802969034,17.0
89.836391571,13.0
89.869814108,28.0
89.903236646,16.0
89.936659183,17.0
89.970081720,22.0
