[Measurement conditions]
Sample identification,
Comment - 1,"Configuration=Reflection-transmission spinner, Owner=User-1, Creation date=5/11/2015 1:51:45 PM"
Comment - 2,"Goniometer=Theta/Theta; Minimum step size 2Theta:0.0001; Minimum step size Omega:0.0001"
Comment - 3,"Sample stage=Reflection-transmission spinner; Minimum step size Phi:0.1"
Comment - 4,"Diffractometer system=EMPYREAN"
Comment - 5,"Measurement program=C:\PANalytical\Data Collector\Programs\Esin Scan.xrdmp, Identifier={545BE9EB-C830-47C9-A564-E4EDE9967014}"
Anode material,Cu
K-Alpha1 wavelength,1.5405980
K-Alpha2 wavelength,1.5444260
Ratio K-Alpha2/K-Alpha1,0.500
Divergence slit,Fixed,0.19mm
Monochromator used,NO
Generator voltage, 45
Tube current, 40
File date and time,29/Jan/2020 11:09
Unit cell,
h k l, 0 0 0
Scan axis,Gonio
Scan range,20.000000001,89.986792989
Scan step size,0.0334225
No. of points, 2094
Scan type,CONTINUOUS
Phi,210.3
Time per step,29.845
[Scan points]
Angle,Intensity
20.016711270,175.0
20.050133807,169.0
20.083556344,150.0
20.116978882,148.0
20.150401419,152.0
20.183823956,132.0
20.217246493,156.0
20.250669031,139.0
20.284091568,147.0
20.317514105,136.0
20.350936642,156.0
20.384359180,135.0
20.417781717,133.0
20.451204254,144.0
20.484626791,125.0
20.518049329,120.0
20.551471866,132.0
20.584894403,127.0
20.618316940,136.0
20.651739478,135.0
20.685162015,129.0
20.718584552,136.0
20.752007089,124.0
20.785429627,137.0
20.818852164,126.0
20.852274701,115.0
20.885697238,138.0
20.919119776,134.0
20.952542313,131.0
20.985964850,117.0
21.019387387,134.0
21.052809925,134.0
21.086232462,128.0
21.119654999,136.0
21.153077536,138.0
21.186500074,111.0
21.219922611,127.0
21.253345148,114.0
21.286767685,115.0
21.320190222,125.0
21.353612760,107.0
21.387035297,116.0
21.420457834,147.0
21.453880371,124.0
21.487302909,123.0
21.520725446,105.0
21.554147983,138.0
21.587570520,110.0
21.620993058,128.0
21.654415595,125.0
21.687838132,120.0
21.721260669,107.0
21.754683207,136.0
21.788105744,93.0
21.821528281,105.0
21.854950818,126.0
21.888373356,107.0
21.921795893,120.0
21.955218430,132.0
21.988640967,107.0
22.022063505,99.0
22.055486042,120.0
22.088908579,136.0
22.122331116,126.0
22.155753654,105.0
22.189176191,104.0
22.222598728,103.0
22.256021265,125.0
22.289443803,134.0
22.322866340,109.0
22.356288877,123.0
22.389711414,132.0
22.423133952,120.0
22.456556489,124.0
22.489979026,101.0
22.523401563,132.0
22.556824100,125.0
22.590246638,98.0
22.623669175,108.0
22.657091712,110.0
22.690514249,100.0
22.723936787,85.0
22.757359324,101.0
22.790781861,98.0
22.824204398,102.0
22.857626936,107.0
22.891049473,134.0
22.924472010,111.0
22.957894547,115.0
22.991317085,98.0
23.024739622,99.0
23.058162159,104.0
23.091584696,102.0
23.125007234,109.0
23.158429771,107.0
23.191852308,112.0
23.225274845,111.0
23.258697383,102.0
23.292119920,116.0
23.325542457,124.0
23.358964994,104.0
23.392387532,121.0
23.425810069,104.0
23.459232606,112.0
23.492655143,104.0
23.526077681,122.0
23.559500218,91.0
23.592922755,107.0
23.626345292,102.0
23.659767830,96.0
23.693190367,90.0
23.726612904,124.0
23.760035441,114.0
23.793457978,111.0
23.826880516,111.0
23.860303053,113.0
23.893725590,107.0
23.927148127,85.0
23.960570665,109.0
23.993993202,109.0
24.027415739,99.0
24.060838276,115.0
24.094260814,99.0
24.127683351,103.0
24.161105888,113.0
24.194528425,87.0
24.227950963,95.0
24.261373500,81.0
24.294796037,110.0
24.328218574,112.0
24.361641112,107.0
24.395063649,99.0
24.428486186,116.0
24.461908723,107.0
24.495331261,90.0
24.528753798,97.0
24.562176335,116.0
24.595598872,92.0
24.629021410,105.0
24.662443947,83.0
24.695866484,93.0
24.729289021,88.0
24.762711559,91.0
24.796134096,102.0
24.829556633,86.0
24.862979170,91.0
24.896401708,109.0
24.929824245,98.0
24.963246782,95.0
24.996669319,97.0
25.030091856,112.0
25.063514394,95.0
25.096936931,111.0
25.130359468,108.0
25.163782005,83.0
25.197204543,121.0
25.230627080,103.0
25.264049617,90.0
25.297472154,54.0
25.330894692,87.0
25.364317229,92.0
25.397739766,86.0
25.431162303,95.0
25.464584841,89.0
25.498007378,97.0
25.531429915,77.0
25.564852452,109.0
25.598274990,102.0
25.631697527,107.0
25.665120064,90.0
25.698542601,109.0
25.731965139,88.0
25.765387676,83.0
25.798810213,88.0
25.832232750,73.0
25.865655288,90.0
25.899077825,97.0
25.932500362,89.0
25.965922899,85.0
25.999345437,75.0
26.032767974,89.0
26.066190511,88.0
26.099613048,81.0
26.133035586,74.0
26.166458123,87.0
26.199880660,80.0
26.233303197,75.0
26.266725734,95.0
26.300148272,85.0
26.333570809,97.0
26.366993346,107.0
26.400415883,95.0
26.433838421,97.0
26.467260958,108.0
26.500683495,90.0
26.534106032,91.0
26.567528570,98.0
26.600951107,95.0
26.634373644,111.0
26.667796181,79.0
26.701218719,92.0
26.734641256,102.0
26.768063793,109.0
26.801486330,148.0
26.834908868,186.0
26.868331405,174.0
26.901753942,279.0
26.935176479,291.0
26.968599017,375.0
27.002021554,376.0
27.035444091,279.0
27.068866628,258.0
27.102289166,254.0
27.135711703,230.0
27.169134240,250.0
27.202556777,234.0
27.235979315,240.0
27.269401852,209.0
27.302824389,183.0
27.336246926,176.0
27.369669464,129.0
27.403092001,104.0
27.436514538,88.0
27.469937075,72.0
27.503359612,95.0
27.536782150,93.0
27.570204687,95.0
27.603627224,81.0
27.637049761,105.0
27.670472299,95.0
27.703894836,86.0
27.737317373,81.0
27.770739910,72.0
27.804162448,67.0
27.837584985,74.0
27.871007522,97.0
27.904430059,79.0
27.937852597,87.0
27.971275134,81.0
28.004697671,81.0
28.038120208,79.0
28.071542746,72.0
28.104965283,81.0
28.138387820,85.0
28.171810357,93.0
28.205232895,87.0
28.238655432,87.0
28.272077969,80.0
28.305500506,74.0
28.338923044,99.0
28.372345581,89.0
28.405768118,74.0
28.439190655,70.0
28.472613193,86.0
28.506035730,72.0
28.539458267,84.0
28.572880804,90.0
28.606303342,88.0
28.639725879,67.0
28.673148416,83.0
28.706570953,69.0
28.739993490,76.0
28.773416028,83.0
28.806838565,67.0
28.840261102,66.0
28.873683639,65.0
28.907106177,85.0
28.940528714,57.0
28.973951251,80.0
29.007373788,73.0
29.040796326,88.0
29.074218863,81.0
29.107641400,88.0
29.141063937,89.0
29.174486475,50.0
29.207909012,68.0
29.241331549,68.0
29.274754086,78.0
29.308176624,61.0
29.341599161,65.0
29.375021698,63.0
29.408444235,83.0
29.441866773,75.0
29.475289310,72.0
29.508711847,76.0
29.542134384,86.0
29.575556922,66.0
29.608979459,93.0
29.642401996,66.0
29.675824533,67.0
29.709247071,74.0
29.742669608,60.0
29.776092145,80.0
29.809514682,84.0
29.842937219,61.0
29.876359757,93.0
29.909782294,69.0
29.943204831,61.0
29.976627368,70.0
30.010049906,67.0
30.043472443,77.0
30.076894980,74.0
30.110317517,72.0
30.143740055,80.0
30.177162592,61.0
30.210585129,77.0
30.244007666,70.0
30.277430204,75.0
30.310852741,95.0
30.344275278,84.0
30.377697815,89.0
30.411120353,96.0
30.444542890,72.0
30.477965427,86.0
30.511387964,92.0
30.544810502,79.0
30.578233039,93.0
30.611655576,84.0
30.645078113,78.0
30.678500651,97.0
30.711923188,86.0
30.745345725,85.0
30.778768262,88.0
30.812190800,113.0
30.845613337,108.0
30.879035874,110.0
30.912458411,111.0
30.945880949,121.0
30.979303486,161.0
31.012726023,244.0
31.046148560,322.0
31.079571097,598.0
31.112993635,1212.0
31.146416172,1697.0
31.179838709,2129.0
31.213261246,3116.0
31.246683784,3804.0
31.280106321,4631.0
31.313528858,5165.0
31.346951395,4916.0
31.380373933,4004.0
31.413796470,3628.0
31.447219007,2930.0
31.480641544,2222.0
31.514064082,2267.0
31.547486619,2337.0
31.580909156,2446.0
31.614331693,2187.0
31.647754231,1607.0
31.681176768,1200.0
31.714599305,701.0
31.748021842,342.0
31.781444380,221.0
31.814866917,190.0
31.848289454,145.0
31.881711991,144.0
31.915134529,107.0
31.948557066,116.0
31.981979603,105.0
32.015402140,112.0
32.048824678,98.0
32.082247215,90.0
32.115669752,87.0
32.149092289,100.0
32.182514827,101.0
32.215937364,90.0
32.249359901,88.0
32.282782438,79.0
32.316204975,83.0
32.349627513,74.0
32.383050050,77.0
32.416472587,79.0
32.449895124,86.0
32.483317662,66.0
32.516740199,81.0
32.550162736,58.0
32.583585273,86.0
32.617007811,75.0
32.650430348,61.0
32.683852885,78.0
32.717275422,77.0
32.750697960,76.0
32.784120497,83.0
32.817543034,72.0
32.850965571,73.0
32.884388109,74.0
32.917810646,79.0
32.951233183,73.0
32.984655720,53.0
33.018078258,62.0
33.051500795,58.0
33.084923332,76.0
33.118345869,67.0
33.151768407,66.0
33.185190944,72.0
33.218613481,69.0
33.252036018,60.0
33.285458556,50.0
33.318881093,60.0
33.352303630,60.0
33.385726167,61.0
33.419148705,72.0
33.452571242,57.0
33.485993779,60.0
33.519416316,63.0
33.552838853,45.0
33.586261391,64.0
33.619683928,72.0
33.653106465,63.0
33.686529002,60.0
33.719951540,60.0
33.753374077,63.0
33.786796614,65.0
33.820219151,43.0
33.853641689,69.0
33.887064226,40.0
33.920486763,62.0
33.953909300,72.0
33.987331838,61.0
34.020754375,62.0
34.054176912,63.0
34.087599449,63.0
34.121021987,51.0
34.154444524,44.0
34.187867061,66.0
34.221289598,61.0
34.254712136,62.0
34.288134673,56.0
34.321557210,51.0
34.354979747,73.0
34.388402285,65.0
34.421824822,66.0
34.455247359,60.0
34.488669896,58.0
34.522092434,55.0
34.555514971,57.0
34.588937508,66.0
34.622360045,57.0
34.655782583,49.0
34.689205120,64.0
34.722627657,60.0
34.756050194,51.0
34.789472731,66.0
34.822895269,65.0
34.856317806,60.0
34.889740343,65.0
34.923162880,46.0
34.956585418,56.0
34.990007955,64.0
35.023430492,50.0
35.056853029,60.0
35.090275567,64.0
35.123698104,50.0
35.157120641,70.0
35.190543178,74.0
35.223965716,54.0
35.257388253,54.0
35.290810790,70.0
35.324233327,66.0
35.357655865,58.0
35.391078402,70.0
35.424500939,64.0
35.457923476,45.0
35.491346014,52.0
35.524768551,66.0
35.558191088,62.0
35.591613625,57.0
35.625036163,54.0
35.658458700,46.0
35.691881237,43.0
35.725303774,67.0
35.758726312,55.0
35.792148849,51.0
35.825571386,68.0
35.858993923,56.0
35.892416461,53.0
35.925838998,66.0
35.959261535,61.0
35.992684072,61.0
36.026106609,57.0
36.059529147,62.0
36.092951684,45.0
36.126374221,61.0
36.159796758,58.0
36.193219296,39.0
36.226641833,49.0
36.260064370,58.0
36.293486907,52.0
36.326909445,57.0
36.360331982,61.0
36.393754519,61.0
36.427177056,58.0
36.460599594,75.0
36.494022131,68.0
36.527444668,60.0
36.560867205,53.0
36.594289743,55.0
36.627712280,73.0
36.661134817,53.0
36.694557354,52.0
36.727979892,49.0
36.761402429,65.0
36.794824966,56.0
36.828247503,45.0
36.861670041,51.0
36.895092578,50.0
36.928515115,56.0
36.961937652,44.0
36.995360190,51.0
37.028782727,53.0
37.062205264,58.0
37.095627801,53.0
37.129050339,56.0
37.162472876,54.0
37.195895413,62.0
37.229317950,55.0
37.262740487,69.0
37.296163025,51.0
37.329585562,65.0
37.363008099,53.0
37.396430636,60.0
37.429853174,60.0
37.463275711,63.0
37.496698248,67.0
37.530120785,58.0
37.563543323,68.0
37.596965860,38.0
37.630388397,75.0
37.663810934,65.0
37.697233472,48.0
37.730656009,76.0
37.764078546,97.0
37.797501083,122.0
37.830923621,137.0
37.864346158,184.0
37.897768695,264.0
37.931191232,428.0
37.964613770,643.0
37.998036307,1054.0
38.031458844,1441.0
38.064881381,1556.0
38.098303919,1559.0
38.131726456,1401.0
38.165148993,1028.0
38.198571530,912.0
38.231994068,774.0
38.265416605,601.0
38.298839142,620.0
38.332261679,614.0
38.365684217,495.0
38.399106754,442.0
38.432529291,334.0
38.465951828,232.0
38.499374365,136.0
38.532796903,87.0
38.566219440,99.0
38.599641977,67.0
38.633064514,62.0
38.666487052,51.0
38.699909589,61.0
38.733332126,70.0
38.766754663,78.0
38.800177201,45.0
38.833599738,64.0
38.867022275,54.0
38.900444812,50.0
38.933867350,60.0
38.967289887,64.0
39.000712424,50.0
39.034134961,73.0
39.067557499,68.0
39.100980036,49.0
39.134402573,41.0
39.167825110,57.0
39.201247648,42.0
39.234670185,49.0
39.268092722,45.0
39.301515259,57.0
39.334937797,61.0
39.368360334,56.0
39.401782871,43.0
39.435205408,52.0
39.468627946,45.0
39.502050483,43.0
39.535473020,50.0
39.568895557,39.0
39.602318095,60.0
39.635740632,45.0
39.669163169,48.0
39.702585706,46.0
39.736008243,50.0
39.769430781,55.0
39.802853318,51.0
39.836275855,62.0
39.869698392,52.0
39.903120930,46.0
39.936543467,49.0
39.969966004,45.0
40.003388541,54.0
40.036811079,60.0
40.070233616,55.0
40.103656153,62.0
40.137078690,56.0
40.170501228,62.0
40.203923765,55.0
40.237346302,43.0
40.270768839,56.0
40.304191377,64.0
40.337613914,52.0
40.371036451,63.0
40.404458988,54.0
40.437881526,54.0
40.471304063,56.0
40.504726600,36.0
40.538149137,50.0
40.571571675,68.0
40.604994212,54.0
40.638416749,49.0
40.671839286,44.0
40.705261824,46.0
40.738684361,63.0
40.772106898,55.0
40.805529435,44.0
40.838951973,46.0
40.872374510,58.0
40.905797047,48.0
40.939219584,64.0
40.972642121,50.0
41.006064659,44.0
41.039487196,52.0
41.072909733,48.0
41.106332270,40.0
41.139754808,53.0
41.173177345,54.0
41.206599882,49.0
41.240022419,49.0
41.273444957,50.0
41.306867494,48.0
41.340290031,54.0
41.373712568,40.0
41.407135106,53.0
41.440557643,42.0
41.473980180,51.0
41.507402717,48.0
41.540825255,55.0
41.574247792,46.0
41.607670329,50.0
41.641092866,52.0
41.674515404,44.0
41.707937941,55.0
41.741360478,63.0
41.774783015,49.0
41.808205553,55.0
41.841628090,53.0
41.875050627,52.0
41.908473164,63.0
41.941895702,48.0
41.975318239,49.0
42.008740776,56.0
42.042163313,49.0
42.075585851,30.0
42.109008388,53.0
42.142430925,41.0
42.175853462,49.0
42.209275999,56.0
42.242698537,48.0
42.276121074,57.0
42.309543611,46.0
42.342966148,51.0
42.376388686,41.0
42.409811223,51.0
42.443233760,49.0
42.476656297,48.0
42.510078835,28.0
42.543501372,49.0
42.576923909,40.0
42.610346446,44.0
42.643768984,32.0
42.677191521,52.0
42.710614058,40.0
42.744036595,58.0
42.777459133,58.0
42.810881670,45.0
42.844304207,55.0
42.877726744,46.0
42.911149282,44.0
42.944571819,60.0
42.977994356,34.0
43.011416893,49.0
43.044839431,49.0
43.078261968,50.0
43.111684505,53.0
43.145107042,45.0
43.178529580,50.0
43.211952117,27.0
43.245374654,54.0
43.278797191,41.0
43.312219729,62.0
43.345642266,54.0
43.379064803,52.0
43.412487340,51.0
43.445909877,51.0
43.479332415,57.0
43.512754952,52.0
43.546177489,49.0
43.579600026,60.0
43.613022564,56.0
43.646445101,50.0
43.679867638,60.0
43.713290175,57.0
43.746712713,53.0
43.780135250,77.0
43.813557787,64.0
43.846980324,61.0
43.880402862,64.0
43.913825399,53.0
43.947247936,74.0
43.980670473,70.0
44.014093011,60.0
44.047515548,78.0
44.080938085,105.0
44.114360622,140.0
44.147783160,190.0
44.181205697,221.0
44.214628234,334.0
44.248050771,515.0
44.281473309,742.0
44.314895846,780.0
44.348318383,759.0
44.381740920,676.0
44.415163458,655.0
44.448585995,590.0
44.482008532,479.0
44.515431069,395.0
44.548853607,336.0
44.582276144,303.0
44.615698681,275.0
44.649121218,245.0
44.682543755,239.0
44.715966293,217.0
44.749388830,241.0
44.782811367,243.0
44.816233904,333.0
44.849656442,416.0
44.883078979,512.0
44.916501516,729.0
44.949924053,1051.0
44.983346591,1682.0
45.016769128,2921.0
45.050191665,4413.0
45.083614202,3504.0
45.117036740,2601.0
45.150459277,2766.0
45.183881814,2858.0
45.217304351,1943.0
45.250726889,1368.0
45.284149426,1178.0
45.317571963,1052.0
45.350994500,804.0
45.384417038,681.0
45.417839575,597.0
45.451262112,440.0
45.484684649,286.0
45.518107187,194.0
45.551529724,151.0
45.584952261,124.0
45.618374798,114.0
45.651797336,78.0
45.685219873,97.0
45.718642410,96.0
45.752064947,75.0
45.785487485,74.0
45.818910022,76.0
45.852332559,69.0
45.885755096,69.0
45.919177633,45.0
45.952600171,58.0
45.986022708,62.0
46.019445245,57.0
46.052867782,58.0
46.086290320,55.0
46.119712857,60.0
46.153135394,73.0
46.186557931,53.0
46.219980469,48.0
46.253403006,58.0
46.286825543,65.0
46.320248080,61.0
46.353670618,57.0
46.387093155,50.0
46.420515692,43.0
46.453938229,48.0
46.487360767,48.0
46.520783304,46.0
46.554205841,43.0
46.587628378,41.0
46.621050916,49.0
46.654473453,56.0
46.687895990,43.0
46.721318527,41.0
46.754741065,56.0
46.788163602,41.0
46.821586139,50.0
46.855008676,41.0
46.888431214,44.0
46.921853751,41.0
46.955276288,42.0
46.988698825,42.0
47.022121362,62.0
47.055543900,50.0
47.088966437,43.0
47.122388974,43.0
47.155811511,46.0
47.189234049,40.0
47.222656586,45.0
47.256079123,39.0
47.289501660,39.0
47.322924198,49.0
47.356346735,36.0
47.389769272,36.0
47.423191809,48.0
47.456614347,41.0
47.490036884,46.0
47.523459421,34.0
47.556881958,46.0
47.590304496,46.0
47.623727033,42.0
47.657149570,36.0
47.690572107,29.0
47.723994645,58.0
47.757417182,43.0
47.790839719,46.0
47.824262256,46.0
47.857684794,41.0
47.891107331,60.0
47.924529868,43.0
47.957952405,36.0
47.991374943,55.0
48.024797480,44.0
48.058220017,38.0
48.091642554,31.0
48.125065092,43.0
48.158487629,33.0
48.191910166,40.0
48.225332703,49.0
48.258755240,41.0
48.292177778,39.0
48.325600315,44.0
48.359022852,40.0
48.392445389,45.0
48.425867927,58.0
48.459290464,52.0
48.492713001,44.0
48.526135538,39.0
48.559558076,46.0
48.592980613,39.0
48.626403150,30.0
48.659825687,50.0
48.693248225,43.0
48.726670762,44.0
48.760093299,41.0
48.793515836,48.0
48.826938374,43.0
48.860360911,33.0
48.893783448,49.0
48.927205985,44.0
48.960628523,45.0
48.994051060,43.0
49.027473597,33.0
49.060896134,49.0
49.094318672,52.0
49.127741209,32.0
49.161163746,45.0
49.194586283,30.0
49.228008821,43.0
49.261431358,43.0
49.294853895,36.0
49.328276432,43.0
49.361698970,55.0
49.395121507,33.0
49.428544044,30.0
49.461966581,36.0
49.495389118,48.0
49.528811656,34.0
49.562234193,45.0
49.595656730,41.0
49.629079267,42.0
49.662501805,31.0
49.695924342,38.0
49.729346879,34.0
49.762769416,32.0
49.796191954,52.0
49.829614491,45.0
49.863037028,39.0
49.896459565,42.0
49.929882103,39.0
49.963304640,48.0
49.996727177,29.0
50.030149714,36.0
50.063572252,30.0
50.096994789,46.0
50.130417326,39.0
50.163839863,37.0
50.197262401,43.0
50.230684938,48.0
50.264107475,43.0
50.297530012,39.0
50.330952550,41.0
50.364375087,44.0
50.397797624,33.0
50.431220161,41.0
50.464642699,46.0
50.498065236,48.0
50.531487773,44.0
50.564910310,46.0
50.598332848,34.0
50.631755385,38.0
50.665177922,41.0
50.698600459,42.0
50.732022996,49.0
50.765445534,44.0
50.798868071,46.0
50.832290608,40.0
50.865713145,28.0
50.899135683,37.0
50.932558220,57.0
50.965980757,41.0
50.999403294,40.0
51.032825832,36.0
51.066248369,41.0
51.099670906,38.0
51.133093443,45.0
51.166515981,31.0
51.199938518,32.0
51.233361055,42.0
51.266783592,38.0
51.300206130,27.0
51.333628667,31.0
51.367051204,45.0
51.400473741,39.0
51.433896279,39.0
51.467318816,25.0
51.500741353,36.0
51.534163890,43.0
51.567586428,28.0
51.601008965,40.0
51.634431502,29.0
51.667854039,30.0
51.701276577,39.0
51.734699114,49.0
51.768121651,38.0
51.801544188,39.0
51.834966726,28.0
51.868389263,43.0
51.901811800,42.0
51.935234337,40.0
51.968656874,45.0
52.002079412,36.0
52.035501949,52.0
52.068924486,42.0
52.102347023,32.0
52.135769561,40.0
52.169192098,39.0
52.202614635,32.0
52.236037172,45.0
52.269459710,49.0
52.302882247,42.0
52.336304784,26.0
52.369727321,29.0
52.403149859,36.0
52.436572396,38.0
52.469994933,39.0
52.503417470,39.0
52.536840008,40.0
52.570262545,33.0
52.603685082,39.0
52.637107619,41.0
52.670530157,43.0
52.703952694,33.0
52.737375231,43.0
52.770797768,48.0
52.804220306,37.0
52.837642843,39.0
52.871065380,51.0
52.904487917,39.0
52.937910455,51.0
52.971332992,42.0
53.004755529,44.0
53.038178066,46.0
53.071600604,52.0
53.105023141,29.0
53.138445678,34.0
53.171868215,40.0
53.205290752,50.0
53.238713290,57.0
53.272135827,54.0
53.305558364,66.0
53.338980901,70.0
53.372403439,73.0
53.405825976,102.0
53.439248513,92.0
53.472671050,116.0
53.506093588,100.0
53.539516125,100.0
53.572938662,103.0
53.606361199,119.0
53.639783737,104.0
53.673206274,98.0
53.706628811,89.0
53.740051348,76.0
53.773473886,70.0
53.806896423,57.0
53.840318960,51.0
53.873741497,53.0
53.907164035,46.0
53.940586572,57.0
53.974009109,51.0
54.007431646,45.0
54.040854184,33.0
54.074276721,40.0
54.107699258,42.0
54.141121795,25.0
54.174544333,37.0
54.207966870,34.0
54.241389407,43.0
54.274811944,26.0
54.308234482,55.0
54.341657019,44.0
54.375079556,34.0
54.408502093,30.0
54.441924630,57.0
54.475347168,26.0
54.508769705,36.0
54.542192242,48.0
54.575614779,41.0
54.609037317,37.0
54.642459854,28.0
54.675882391,31.0
54.709304928,30.0
54.742727466,42.0
54.776150003,33.0
54.809572540,39.0
54.842995077,43.0
54.876417615,40.0
54.909840152,27.0
54.943262689,40.0
54.976685226,43.0
55.010107764,42.0
55.043530301,44.0
55.076952838,33.0
55.110375375,33.0
55.143797913,38.0
55.177220450,37.0
55.210642987,31.0
55.244065524,39.0
55.277488062,50.0
55.310910599,38.0
55.344333136,29.0
55.377755673,41.0
55.411178211,42.0
55.444600748,41.0
55.478023285,34.0
55.511445822,34.0
55.544868360,38.0
55.578290897,39.0
55.611713434,44.0
55.645135971,58.0
55.678558508,56.0
55.711981046,61.0
55.745403583,60.0
55.778826120,73.0
55.812248657,84.0
55.845671195,112.0
55.879093732,141.0
55.912516269,202.0
55.945938806,257.0
55.979361344,357.0
56.012783881,476.0
56.046206418,574.0
56.079628955,560.0
56.113051493,548.0
56.146474030,540.0
56.179896567,571.0
56.213319104,533.0
56.246741642,487.0
56.280164179,431.0
56.313586716,349.0
56.347009253,316.0
56.380431791,275.0
56.413854328,241.0
56.447276865,194.0
56.480699402,143.0
56.514121940,137.0
56.547544477,120.0
56.580967014,108.0
56.614389551,77.0
56.647812089,77.0
56.681234626,55.0
56.714657163,39.0
56.748079700,37.0
56.781502238,32.0
56.814924775,44.0
56.848347312,60.0
56.881769849,33.0
56.915192386,45.0
56.948614924,40.0
56.982037461,34.0
57.015459998,36.0
57.048882535,33.0
57.082305073,33.0
57.115727610,39.0
57.149150147,51.0
57.182572684,30.0
57.215995222,43.0
57.249417759,36.0
57.282840296,25.0
57.316262833,36.0
57.349685371,34.0
57.383107908,40.0
57.416530445,40.0
57.449952982,40.0
57.483375520,27.0
57.516798057,43.0
57.550220594,37.0
57.583643131,32.0
57.617065669,20.0
57.650488206,34.0
57.683910743,45.0
57.717333280,24.0
57.750755818,31.0
57.784178355,33.0
57.817600892,30.0
57.851023429,31.0
57.884445967,36.0
57.917868504,30.0
57.951291041,38.0
57.984713578,44.0
58.018136116,33.0
58.051558653,27.0
58.084981190,36.0
58.118403727,28.0
58.151826264,27.0
58.185248802,45.0
58.218671339,33.0
58.252093876,41.0
58.285516413,26.0
58.318938951,33.0
58.352361488,39.0
58.385784025,39.0
58.419206562,26.0
58.452629100,36.0
58.486051637,30.0
58.519474174,29.0
58.552896711,33.0
58.586319249,28.0
58.619741786,28.0
58.653164323,26.0
58.686586860,34.0
58.720009398,30.0
58.753431935,39.0
58.786854472,36.0
58.820277009,43.0
58.853699547,48.0
58.887122084,38.0
58.920544621,40.0
58.953967158,37.0
58.987389696,31.0
59.020812233,36.0
59.054234770,32.0
59.087657307,28.0
59.121079845,34.0
59.154502382,32.0
59.187924919,29.0
59.221347456,34.0
59.254769994,34.0
59.288192531,43.0
59.321615068,53.0
59.355037605,33.0
59.388460142,41.0
59.421882680,28.0
59.455305217,26.0
59.488727754,32.0
59.522150291,28.0
59.555572829,26.0
59.588995366,26.0
59.622417903,32.0
59.655840440,40.0
59.689262978,27.0
59.722685515,31.0
59.756108052,25.0
59.789530589,43.0
59.822953127,24.0
59.856375664,43.0
59.889798201,37.0
59.923220738,29.0
59.956643276,40.0
59.990065813,34.0
60.023488350,42.0
60.056910887,20.0
60.090333425,31.0
60.123755962,24.0
60.157178499,32.0
60.190601036,31.0
60.224023574,26.0
60.257446111,31.0
60.290868648,36.0
60.324291185,33.0
60.357713723,37.0
60.391136260,29.0
60.424558797,30.0
60.457981334,29.0
60.491403872,36.0
60.524826409,31.0
60.558248946,27.0
60.591671483,38.0
60.625094020,30.0
60.658516558,26.0
60.691939095,28.0
60.725361632,34.0
60.758784169,31.0
60.792206707,32.0
60.825629244,33.0
60.859051781,26.0
60.892474318,32.0
60.925896856,38.0
60.959319393,25.0
60.992741930,22.0
61.026164467,40.0
61.059587005,27.0
61.093009542,27.0
61.126432079,41.0
61.159854616,31.0
61.193277154,30.0
61.226699691,39.0
61.260122228,41.0
61.293544765,34.0
61.326967303,32.0
61.360389840,30.0
61.393812377,30.0
61.427234914,38.0
61.460657452,40.0
61.494079989,34.0
61.527502526,38.0
61.560925063,24.0
61.594347601,32.0
61.627770138,38.0
61.661192675,31.0
61.694615212,37.0
61.728037750,25.0
61.761460287,44.0
61.794882824,29.0
61.828305361,42.0
61.861727898,38.0
61.895150436,34.0
61.928572973,31.0
61.961995510,31.0
61.995418047,34.0
62.028840585,38.0
62.062263122,37.0
62.095685659,34.0
62.129108196,42.0
62.162530734,26.0
62.195953271,44.0
62.229375808,36.0
62.262798345,39.0
62.296220883,39.0
62.329643420,37.0
62.363065957,41.0
62.396488494,29.0
62.429911032,36.0
62.463333569,29.0
62.496756106,36.0
62.530178643,26.0
62.563601181,40.0
62.597023718,38.0
62.630446255,40.0
62.663868792,32.0
62.697291330,39.0
62.730713867,30.0
62.764136404,26.0
62.797558941,33.0
62.830981479,26.0
62.864404016,27.0
62.897826553,34.0
62.931249090,39.0
62.964671628,42.0
62.998094165,48.0
63.031516702,44.0
63.064939239,39.0
63.098361776,34.0
63.131784314,30.0
63.165206851,24.0
63.198629388,30.0
63.232051925,33.0
63.265474463,38.0
63.298897000,31.0
63.332319537,31.0
63.365742074,28.0
63.399164612,30.0
63.432587149,42.0
63.466009686,43.0
63.499432223,43.0
63.532854761,31.0
63.566277298,29.0
63.599699835,42.0
63.633122372,51.0
63.666544910,45.0
63.699967447,46.0
63.733389984,44.0
63.766812521,45.0
63.800235059,45.0
63.833657596,49.0
63.867080133,43.0
63.900502670,46.0
63.933925208,39.0
63.967347745,40.0
64.000770282,53.0
64.034192819,49.0
64.067615357,40.0
64.101037894,36.0
64.134460431,40.0
64.167882968,33.0
64.201305505,46.0
64.234728043,49.0
64.268150580,41.0
64.301573117,54.0
64.334995654,41.0
64.368418192,46.0
64.401840729,45.0
64.435263266,52.0
64.468685803,40.0
64.502108341,67.0
64.535530878,81.0
64.568953415,98.0
64.602375952,154.0
64.635798490,193.0
64.669221027,340.0
64.702643564,410.0
64.736066101,430.0
64.769488639,330.0
64.802911176,282.0
64.836333713,277.0
64.869756250,308.0
64.903178788,352.0
64.936601325,281.0
64.970023862,231.0
65.003446399,185.0
65.036868937,138.0
65.070291474,120.0
65.103714011,79.0
65.137136548,98.0
65.170559086,92.0
65.203981623,69.0
65.237404160,40.0
65.270826697,49.0
65.304249235,60.0
65.337671772,44.0
65.371094309,52.0
65.404516846,46.0
65.437939383,55.0
65.471361921,67.0
65.504784458,57.0
65.538206995,66.0
65.571629532,66.0
65.605052070,90.0
65.638474607,85.0
65.671897144,120.0
65.705319681,159.0
65.738742219,242.0
65.772164756,357.0
65.805587293,474.0
65.839009830,503.0
65.872432368,505.0
65.905854905,476.0
65.939277442,407.0
65.972699979,388.0
66.006122517,428.0
66.039545054,374.0
66.072967591,344.0
66.106390128,325.0
66.139812666,199.0
66.173235203,208.0
66.206657740,147.0
66.240080277,114.0
66.273502815,100.0
66.306925352,116.0
66.340347889,105.0
66.373770426,69.0
66.407192964,72.0
66.440615501,46.0
66.474038038,56.0
66.507460575,54.0
66.540883113,36.0
66.574305650,37.0
66.607728187,40.0
66.641150724,42.0
66.674573261,43.0
66.707995799,46.0
66.741418336,55.0
66.774840873,34.0
66.808263410,42.0
66.841685948,49.0
66.875108485,40.0
66.908531022,34.0
66.941953559,39.0
66.975376097,43.0
67.008798634,36.0
67.042221171,37.0
67.075643708,36.0
67.109066246,49.0
67.142488783,31.0
67.175911320,40.0
67.209333857,33.0
67.242756395,42.0
67.276178932,48.0
67.309601469,31.0
67.343024006,37.0
67.376446544,38.0
67.409869081,37.0
67.443291618,51.0
67.476714155,33.0
67.510136693,43.0
67.543559230,37.0
67.576981767,45.0
67.610404304,33.0
67.643826842,44.0
67.677249379,40.0
67.710671916,36.0
67.744094453,34.0
67.777516991,30.0
67.810939528,28.0
67.844362065,37.0
67.877784602,32.0
67.911207139,45.0
67.944629677,38.0
67.978052214,40.0
68.011474751,34.0
68.044897288,37.0
68.078319826,37.0
68.111742363,28.0
68.145164900,29.0
68.178587437,41.0
68.212009975,33.0
68.245432512,28.0
68.278855049,27.0
68.312277586,30.0
68.345700124,37.0
68.379122661,40.0
68.412545198,22.0
68.445967735,27.0
68.479390273,37.0
68.512812810,36.0
68.546235347,30.0
68.579657884,33.0
68.613080422,37.0
68.646502959,18.0
68.679925496,36.0
68.713348033,41.0
68.746770571,31.0
68.780193108,38.0
68.813615645,29.0
68.847038182,44.0
68.880460720,29.0
68.913883257,27.0
68.947305794,27.0
68.980728331,30.0
69.014150869,37.0
69.047573406,26.0
69.080995943,42.0
69.114418480,42.0
69.147841017,51.0
69.181263555,33.0
69.214686092,38.0
69.248108629,30.0
69.281531166,33.0
69.314953704,42.0
69.348376241,39.0
69.381798778,32.0
69.415221315,38.0
69.448643853,49.0
69.482066390,27.0
69.515488927,37.0
69.548911464,36.0
69.582334002,25.0
69.615756539,39.0
69.649179076,42.0
69.682601613,30.0
69.716024151,36.0
69.749446688,29.0
69.782869225,38.0
69.816291762,31.0
69.849714300,34.0
69.883136837,43.0
69.916559374,54.0
69.949981911,33.0
69.983404449,27.0
70.016826986,40.0
70.050249523,38.0
70.083672060,28.0
70.117094598,45.0
70.150517135,38.0
70.183939672,45.0
70.217362209,44.0
70.250784747,39.0
70.284207284,34.0
70.317629821,30.0
70.351052358,38.0
70.384474895,31.0
70.417897433,45.0
70.451319970,40.0
70.484742507,34.0
70.518165044,39.0
70.551587582,32.0
70.585010119,31.0
70.618432656,49.0
70.651855193,37.0
70.685277731,40.0
70.718700268,27.0
70.752122805,38.0
70.785545342,39.0
70.818967880,50.0
70.852390417,43.0
70.885812954,44.0
70.919235491,39.0
70.952658029,39.0
70.986080566,36.0
71.019503103,30.0
71.052925640,33.0
71.086348178,32.0
71.119770715,42.0
71.153193252,38.0
71.186615789,51.0
71.220038327,31.0
71.253460864,39.0
71.286883401,28.0
71.320305938,30.0
71.353728476,42.0
71.387151013,46.0
71.420573550,39.0
71.453996087,29.0
71.487418625,30.0
71.520841162,41.0
71.554263699,34.0
71.587686236,39.0
71.621108773,42.0
71.654531311,37.0
71.687953848,40.0
71.721376385,43.0
71.754798922,46.0
71.788221460,36.0
71.821643997,31.0
71.855066534,29.0
71.888489071,31.0
71.921911609,38.0
71.955334146,39.0
71.988756683,44.0
72.022179220,45.0
72.055601758,33.0
72.089024295,40.0
72.122446832,42.0
72.155869369,38.0
72.189291907,41.0
72.222714444,42.0
72.256136981,42.0
72.289559518,25.0
72.322982056,41.0
72.356404593,56.0
72.389827130,48.0
72.423249667,32.0
72.456672205,34.0
72.490094742,38.0
72.523517279,50.0
72.556939816,66.0
72.590362354,69.0
72.623784891,62.0
72.657207428,70.0
72.690629965,81.0
72.724052503,69.0
72.757475040,78.0
72.790897577,58.0
72.824320114,75.0
72.857742651,58.0
72.891165189,67.0
72.924587726,75.0
72.958010263,61.0
72.991432800,60.0
73.024855338,54.0
73.058277875,36.0
73.091700412,44.0
73.125122949,55.0
73.158545487,44.0
73.191968024,62.0
73.225390561,42.0
73.258813098,56.0
73.292235636,48.0
73.325658173,43.0
73.359080710,34.0
73.392503247,55.0
73.425925785,50.0
73.459348322,43.0
73.492770859,43.0
73.526193396,44.0
73.559615934,37.0
73.593038471,56.0
73.626461008,25.0
73.659883545,46.0
73.693306083,48.0
73.726728620,52.0
73.760151157,49.0
73.793573694,46.0
73.826996232,34.0
73.860418769,49.0
73.893841306,51.0
73.927263843,45.0
73.960686381,43.0
73.994108918,48.0
74.027531455,41.0
74.060953992,48.0
74.094376529,36.0
74.127799067,42.0
74.161221604,42.0
74.194644141,51.0
74.228066678,52.0
74.261489216,43.0
74.294911753,68.0
74.328334290,55.0
74.361756827,52.0
74.395179365,49.0
74.428601902,73.0
74.462024439,57.0
74.495446976,58.0
74.528869514,73.0
74.562292051,67.0
74.595714588,86.0
74.629137125,99.0
74.662559663,109.0
74.695982200,136.0
74.729404737,152.0
74.762827274,219.0
74.796249812,280.0
74.829672349,375.0
74.863094886,458.0
74.896517423,539.0
74.929939961,539.0
74.963362498,494.0
74.996785035,455.0
75.030207572,456.0
75.063630110,488.0
75.097052647,514.0
75.130475184,536.0
75.163897721,442.0
75.197320259,376.0
75.230742796,323.0
75.264165333,294.0
75.297587870,225.0
75.331010407,206.0
75.364432945,186.0
75.397855482,184.0
75.431278019,132.0
75.464700556,105.0
75.498123094,80.0
75.531545631,87.0
75.564968168,84.0
75.598390705,73.0
75.631813243,57.0
75.665235780,70.0
75.698658317,57.0
75.732080854,53.0
75.765503392,51.0
75.798925929,41.0
75.832348466,49.0
75.865771003,43.0
75.899193541,46.0
75.932616078,40.0
75.966038615,38.0
75.999461152,41.0
76.032883690,45.0
76.066306227,39.0
76.099728764,55.0
76.133151301,58.0
76.166573839,41.0
76.199996376,39.0
76.233418913,50.0
76.266841450,39.0
76.300263988,54.0
76.333686525,51.0
76.367109062,45.0
76.400531599,41.0
76.433954137,28.0
76.467376674,32.0
76.500799211,40.0
76.534221748,34.0
76.567644285,38.0
76.601066823,44.0
76.634489360,43.0
76.667911897,48.0
76.701334434,46.0
76.734756972,42.0
76.768179509,50.0
76.801602046,43.0
76.835024583,45.0
76.868447121,38.0
76.901869658,54.0
76.935292195,53.0
76.968714732,44.0
77.002137270,39.0
77.035559807,43.0
77.068982344,53.0
77.102404881,33.0
77.135827419,55.0
77.169249956,40.0
77.202672493,38.0
77.236095030,36.0
77.269517568,54.0
77.302940105,42.0
77.336362642,50.0
77.369785179,53.0
77.403207717,39.0
77.436630254,54.0
77.470052791,48.0
77.503475328,40.0
77.536897866,52.0
77.570320403,61.0
77.603742940,64.0
77.637165477,68.0
77.670588015,89.0
77.704010552,93.0
77.737433089,124.0
77.770855626,175.0
77.804278163,270.0
77.837700701,444.0
77.871123238,505.0
77.904545775,440.0
77.937968312,332.0
77.971390850,291.0
78.004813387,279.0
78.038235924,301.0
78.071658461,372.0
78.105080999,389.0
78.138503536,342.0
78.171926073,212.0
78.205348610,192.0
78.238771148,152.0
78.272193685,116.0
78.305616222,116.0
78.339038759,113.0
78.372461297,88.0
78.405883834,79.0
78.439306371,69.0
78.472728908,55.0
78.506151446,53.0
78.539573983,45.0
78.572996520,43.0
78.606419057,55.0
78.639841595,56.0
78.673264132,36.0
78.706686669,41.0
78.740109206,42.0
78.773531744,62.0
78.806954281,44.0
78.840376818,48.0
78.873799355,39.0
78.907221893,39.0
78.940644430,33.0
78.974066967,46.0
79.007489504,40.0
79.040912041,34.0
79.074334579,46.0
79.107757116,36.0
79.141179653,42.0
79.174602190,42.0
79.208024728,45.0
79.241447265,44.0
79.274869802,40.0
79.308292339,25.0
79.341714877,32.0
79.375137414,45.0
79.408559951,50.0
79.441982488,38.0
79.475405026,48.0
79.508827563,48.0
79.542250100,39.0
79.575672637,40.0
79.609095175,36.0
79.642517712,44.0
79.675940249,33.0
79.709362786,49.0
79.742785324,31.0
79.776207861,48.0
79.809630398,40.0
79.843052935,43.0
79.876475473,37.0
79.909898010,36.0
79.943320547,41.0
79.976743084,42.0
80.010165622,38.0
80.043588159,34.0
80.077010696,49.0
80.110433233,31.0
80.143855771,44.0
80.177278308,39.0
80.210700845,39.0
80.244123382,30.0
80.277545919,42.0
80.310968457,49.0
80.344390994,29.0
80.377813531,39.0
80.411236068,45.0
80.444658606,40.0
80.478081143,34.0
80.511503680,45.0
80.544926217,45.0
80.578348755,34.0
80.611771292,36.0
80.645193829,48.0
80.678616366,41.0
80.712038904,38.0
80.745461441,38.0
80.778883978,34.0
80.812306515,29.0
80.845729053,30.0
80.879151590,41.0
80.912574127,46.0
80.945996664,38.0
80.979419202,43.0
81.012841739,52.0
81.046264276,41.0
81.079686813,36.0
81.113109351,44.0
81.146531888,37.0
81.179954425,33.0
81.213376962,42.0
81.246799500,24.0
81.280222037,50.0
81.313644574,36.0
81.347067111,42.0
81.380489648,42.0
81.413912186,55.0
81.447334723,39.0
81.480757260,31.0
81.514179797,61.0
81.547602335,48.0
81.581024872,46.0
81.614447409,41.0
81.647869946,36.0
81.681292484,38.0
81.714715021,53.0
81.748137558,52.0
81.781560095,40.0
81.814982633,48.0
81.848405170,54.0
81.881827707,39.0
81.915250244,53.0
81.948672782,66.0
81.982095319,74.0
82.015517856,109.0
82.048940393,146.0
82.082362931,183.0
82.115785468,192.0
82.149208005,131.0
82.182630542,102.0
82.216053080,95.0
82.249475617,110.0
82.282898154,119.0
82.316320691,146.0
82.349743229,133.0
82.383165766,119.0
82.416588303,83.0
82.450010840,63.0
82.483433378,68.0
82.516855915,55.0
82.550278452,51.0
82.583700989,57.0
82.617123526,42.0
82.650546064,43.0
82.683968601,51.0
82.717391138,29.0
82.750813675,54.0
82.784236213,45.0
82.817658750,53.0
82.851081287,34.0
82.884503824,42.0
82.917926362,42.0
82.951348899,50.0
82.984771436,51.0
83.018193973,46.0
83.051616511,58.0
83.085039048,52.0
83.118461585,53.0
83.151884122,61.0
83.185306660,66.0
83.218729197,61.0
83.252151734,64.0
83.285574271,63.0
83.318996809,88.0
83.352419346,92.0
83.385841883,99.0
83.419264420,125.0
83.452686958,135.0
83.486109495,211.0
83.519532032,220.0
83.552954569,286.0
83.586377107,393.0
83.619799644,540.0
83.653222181,548.0
83.686644718,488.0
83.720067256,419.0
83.753489793,345.0
83.786912330,325.0
83.820334867,392.0
83.853757404,372.0
83.887179942,371.0
83.920602479,372.0
83.954025016,310.0
83.987447553,257.0
84.020870091,208.0
84.054292628,158.0
84.087715165,128.0
84.121137702,136.0
84.154560240,114.0
84.187982777,96.0
84.221405314,88.0
84.254827851,63.0
84.288250389,68.0
84.321672926,54.0
84.355095463,50.0
84.388518000,75.0
84.421940538,50.0
84.455363075,46.0
84.488785612,42.0
84.522208149,46.0
84.555630687,44.0
84.589053224,41.0
84.622475761,50.0
84.655898298,51.0
84.689320836,33.0
84.722743373,29.0
84.756165910,40.0
84.789588447,53.0
84.823010985,37.0
84.856433522,32.0
84.889856059,40.0
84.923278596,45.0
84.956701134,36.0
84.990123671,41.0
85.023546208,40.0
85.056968745,31.0
85.090391282,31.0
85.123813820,38.0
85.157236357,31.0
85.190658894,40.0
85.224081431,30.0
85.257503969,29.0
85.290926506,29.0
85.324349043,38.0
85.357771580,37.0
85.391194118,55.0
85.424616655,37.0
85.458039192,28.0
85.491461729,44.0
85.524884267,41.0
85.558306804,26.0
85.591729341,43.0
85.625151878,42.0
85.658574416,40.0
85.691996953,36.0
85.725419490,38.0
85.758842027,39.0
85.792264565,48.0
85.825687102,38.0
85.859109639,27.0
85.892532176,39.0
85.925954714,38.0
85.959377251,33.0
85.992799788,39.0
86.026222325,33.0
86.059644863,43.0
86.093067400,36.0
86.126489937,36.0
86.159912474,49.0
86.193335012,36.0
86.226757549,32.0
86.260180086,34.0
86.293602623,41.0
86.327025160,37.0
86.360447698,29.0
86.393870235,31.0
86.427292772,25.0
86.460715309,39.0
86.494137847,41.0
86.527560384,32.0
86.560982921,37.0
86.594405458,31.0
86.627827996,39.0
86.661250533,30.0
86.694673070,36.0
86.728095607,41.0
86.761518145,29.0
86.794940682,29.0
86.828363219,32.0
86.861785756,34.0
86.895208294,30.0
86.928630831,39.0
86.962053368,34.0
86.995475905,33.0
87.028898443,31.0
87.062320980,33.0
87.095743517,28.0
87.129166054,42.0
87.162588592,30.0
87.196011129,32.0
87.229433666,30.0
87.262856203,28.0
87.296278741,29.0
87.329701278,26.0
87.363123815,33.0
87.396546352,28.0
87.429968890,28.0
87.463391427,27.0
87.496813964,38.0
87.530236501,42.0
87.563659038,33.0
87.597081576,38.0
87.630504113,33.0
87.663926650,29.0
87.697349187,27.0
87.730771725,40.0
87.764194262,34.0
87.797616799,20.0
87.831039336,26.0
87.864461874,51.0
87.897884411,30.0
87.931306948,37.0
87.964729485,33.0
87.998152023,37.0
88.031574560,29.0
88.064997097,36.0
88.098419634,42.0
88.131842172,39.0
88.165264709,36.0
88.198687246,25.0
88.232109783,30.0
88.265532321,39.0
88.298954858,31.0
88.332377395,40.0
88.365799932,48.0
88.399222470,27.0
88.432645007,44.0
88.466067544,31.0
88.499490081,34.0
88.532912619,32.0
88.566335156,37.0
88.599757693,30.0
88.633180230,37.0
88.666602768,37.0
88.700025305,27.0
88.733447842,40.0
88.766870379,28.0
88.800292916,27.0
88.833715454,25.0
88.867137991,26.0
88.900560528,31.0
88.933983065,36.0
88.967405603,26.0
89.000828140,38.0
89.034250677,31.0
89.067673214,38.0
89.101095752,38.0
89.134518289,28.0
89.167940826,29.0
89.201363363,24.0
89.234785901,24.0
89.268208438,37.0
89.301630975,30.0
89.335053512,27.0
89.368476050,34.0
89.401898587,45.0
89.435321124,21.0
89.468743661,24.0
89.502166199,44.0
89.535588736,36.0
89.569011273,30.0
89.602433810,32.0
89.635856348,30.0
89.669278885,29.0
89.702701422,30.0
89.736123959,33.0
89.769546497,43.0
89.802969034,40.0
89.836391571,38.0
89.869814108,48.0
89.903236646,40.0
89.936659183,51.0
89.970081720,48.0
